0.000000	0.014505
0.050000	0.014429
0.100000	0.014415
0.150000	0.014530
0.200000	0.014493
0.250000	0.014467
0.300000	0.013812
0.350000	0.012314
0.400000	0.011141
0.450000	0.010385
0.500000	0.013971
0.550000	0.017197
0.600000	0.017376
0.650000	0.016720
0.700000	0.019526
0.750000	0.033504
0.800000	0.040939
0.850000	0.042305
0.900000	0.044347
0.950000	0.050046
1.000000	0.060197
1.050000	0.073218
1.100000	0.085980
1.150000	0.109811
1.200000	0.158622
1.250000	0.197761
1.300000	0.219912
1.350000	0.230332
1.400000	0.181898
1.450000	0.028588
1.500000	0.012841
1.550000	0.013181
1.600000	0.013833
1.650000	0.008301
1.700000	0.006450
1.750000	0.008217
1.800000	0.007247
1.850000	0.006273
1.900000	0.007486
1.950000	0.008078
2.000000	0.008403
2.050000	0.008629
2.100000	0.010108
2.150000	0.012113
2.200000	0.014069
2.250000	0.016007
2.300000	0.015369
2.350000	0.014641
2.400000	0.010646
2.450000	-0.000293
2.500000	0.004444
2.550000	0.010169
2.600000	0.009025
2.650000	0.009521
2.700000	0.012404
2.750000	0.015560
2.800000	0.018504
2.850000	0.017067
2.900000	0.017122
2.950000	0.016233
3.000000	0.016427
3.050000	0.010364
3.100000	0.007846
3.150000	0.013684
3.200000	0.007000
3.250000	0.006890
3.300000	0.008826
3.350000	0.009481
3.400000	0.009740
3.450000	0.009601
3.500000	0.009209
3.550000	0.009275
3.600000	0.009500
3.650000	0.009966
3.700000	0.012113
3.750000	0.014343
3.800000	0.016231
3.850000	0.017808
3.900000	0.020355
3.950000	0.024501
4.000000	0.027813
4.050000	0.029143
4.100000	0.029549
4.150000	0.030349
4.200000	0.030452
4.250000	0.029452
4.300000	0.029856
4.350000	0.030862
4.400000	0.031379
4.450000	0.031566
4.500000	0.031519
4.550000	0.031685
4.600000	0.031458
4.650000	0.031775
4.700000	0.032771
4.750000	0.032935
4.800000	0.032649
4.850000	0.032649
4.900000	0.032668
4.950000	0.031894
5.000000	0.031380
5.050000	0.031296
5.100000	0.031199
5.150000	0.031563
5.200000	0.032207
5.250000	0.032596
5.300000	0.032409
5.350000	0.032198
5.400000	0.032332
5.450000	0.032511
5.500000	0.032637
5.550000	0.032685
5.600000	0.032760
5.650000	0.032808
5.700000	0.032732
5.750000	0.032840
5.800000	0.032930
5.850000	0.032783
5.900000	0.032644
5.950000	0.032667
6.000000	0.032814
6.050000	0.032824
6.100000	0.032843
6.150000	0.032978
6.200000	0.033065
6.250000	0.033104
6.300000	0.033211
6.350000	0.033063
6.400000	0.032899
6.450000	0.032991
6.500000	0.033383
6.550000	0.033843
6.600000	0.034190
6.650000	0.034642
6.700000	0.034733
6.750000	0.034673
6.800000	0.034731
6.850000	0.034629
6.900000	0.034431
6.950000	0.033928
7.000000	0.033825
7.050000	0.033820
7.100000	0.033809
7.150000	0.033625
7.200000	0.033506
7.250000	0.033455
7.300000	0.033470
7.350000	0.033531
7.400000	0.033483
7.450000	0.033460
7.500000	0.033380
7.550000	0.033135
7.600000	0.032954
7.650000	0.033054
7.700000	0.033160
7.750000	0.033156
7.800000	0.033149
7.850000	0.033099
7.900000	0.033105
7.950000	0.033141
8.000000	0.033158
8.050000	0.033102
8.100000	0.033039
8.150000	0.032829
8.200000	0.032624
8.250000	0.032630
8.300000	0.032679
8.350000	0.032718
8.400000	0.032741
8.450000	0.032726
8.500000	0.032769
8.550000	0.032888
8.600000	0.033042
8.650000	0.033151
8.700000	0.033180
8.750000	0.033033
8.800000	0.032803
8.850000	0.032779
8.900000	0.032815
8.950000	0.032874
9.000000	0.032882
9.050000	0.032875
9.100000	0.032907
9.150000	0.032961
9.200000	0.032954
9.250000	0.033012
9.300000	0.033055
9.350000	0.033036
9.400000	0.032914
9.450000	0.032634
9.500000	0.032594
9.550000	0.032624
9.600000	0.032728
9.650000	0.032767
9.700000	0.032716
9.750000	0.032695
9.800000	0.032668
9.850000	0.032721
9.900000	0.032701
9.950000	0.032672
10.000000	0.032737
10.050000	0.032606
10.100000	0.032390
10.150000	0.032334
10.200000	0.032396
10.250000	0.032550
10.300000	0.032560
10.350000	0.032492
10.400000	0.032501
10.450000	0.032536
10.500000	0.032542
10.550000	0.032538
10.600000	0.032559
10.650000	0.032627
10.700000	0.032552
10.750000	0.032305
10.800000	0.032185
10.850000	0.032273
10.900000	0.032341
10.950000	0.032368
11.000000	0.032375
11.050000	0.032356
11.100000	0.032319
11.150000	0.032332
11.200000	0.032345
11.250000	0.032358
11.300000	0.032469
11.350000	0.032467
11.400000	0.032323
11.450000	0.032138
11.500000	0.032164
11.550000	0.032277
11.600000	0.032325
11.650000	0.032357
11.700000	0.032304
11.750000	0.032319
11.800000	0.032371
11.850000	0.032392
11.900000	0.032424
11.950000	0.032427
12.000000	0.032435
12.050000	0.032225
12.100000	0.032050
12.150000	0.032049
12.200000	0.032124
12.250000	0.032152
12.300000	0.032089
12.350000	0.032025
12.400000	0.032035
12.450000	0.032126
12.500000	0.032198
12.550000	0.032200
12.600000	0.032256
12.650000	0.032112
12.700000	0.031874
12.750000	0.031861
12.800000	0.031987
12.850000	0.032037
12.900000	0.032046
12.950000	0.032026
13.000000	0.032011
13.050000	0.032035
13.100000	0.032085
13.150000	0.032120
13.200000	0.032115
13.250000	0.031960
13.300000	0.031816
13.350000	0.031818
13.400000	0.031928
13.450000	0.032005
13.500000	0.032008
13.550000	0.031984
13.600000	0.031999
13.650000	0.032079
13.700000	0.032100
13.750000	0.032121
13.800000	0.032066
13.850000	0.031864
13.900000	0.031750
13.950000	0.031852
14.000000	0.031937
14.050000	0.031986
14.100000	0.031964
14.150000	0.031920
14.200000	0.031974
14.250000	0.031982
14.300000	0.032019
14.350000	0.032068
14.400000	0.031970
14.450000	0.031749
14.500000	0.031672
14.550000	0.031710
14.600000	0.031787
14.650000	0.031819
14.700000	0.031770
14.750000	0.031723
14.800000	0.031764
14.850000	0.031741
14.900000	0.031778
14.950000	0.031832
15.000000	0.031845
15.050000	0.031611
15.100000	0.031493
15.150000	0.031571
15.200000	0.031672
15.250000	0.031690
15.300000	0.031688
15.350000	0.031641
15.400000	0.031671
15.450000	0.031710
15.500000	0.031753
15.550000	0.031782
15.600000	0.031840
15.650000	0.031685
15.700000	0.031499
15.750000	0.031527
15.800000	0.031590
15.850000	0.031666
15.900000	0.031649
15.950000	0.031649
16.000000	0.031686
16.050000	0.031715
16.100000	0.031753
16.150000	0.031806
16.200000	0.031828
16.250000	0.031784
16.300000	0.031535
16.350000	0.031443
16.400000	0.031461
16.450000	0.031537
16.500000	0.031661
16.550000	0.031618
16.600000	0.031623
16.650000	0.031668
16.700000	0.031650
16.750000	0.031719
16.800000	0.031739
16.850000	0.031759
16.900000	0.031622
16.950000	0.031421
17.000000	0.031397
17.050000	0.031445
17.100000	0.031543
17.150000	0.031534
17.200000	0.031515
17.250000	0.031502
17.300000	0.031567
17.350000	0.031542
17.400000	0.031550
17.450000	0.031582
17.500000	0.031546
17.550000	0.031351
17.600000	0.031237
17.650000	0.031287
17.700000	0.031340
17.750000	0.031401
17.800000	0.031386
17.850000	0.031381
17.900000	0.031373
17.950000	0.031402
18.000000	0.031412
18.050000	0.031409
18.100000	0.031416
18.150000	0.031326
18.200000	0.031098
18.250000	0.031027
18.300000	0.031104
18.350000	0.031159
18.400000	0.031209
18.450000	0.031195
18.500000	0.031177
18.550000	0.031187
18.600000	0.031202
18.650000	0.031246
18.700000	0.031266
18.750000	0.031296
18.800000	0.031242
18.850000	0.030971
18.900000	0.030937
18.950000	0.030978
19.000000	0.031067
19.050000	0.031115
19.100000	0.031120
19.150000	0.031170
19.200000	0.031227
19.250000	0.031286
19.300000	0.031345
19.350000	0.031398
19.400000	0.031426
19.450000	0.031423
19.500000	0.031183
19.550000	0.031063
19.600000	0.031132
19.650000	0.031169
19.700000	0.031231
19.750000	0.031230
19.800000	0.031206
19.850000	0.031234
19.900000	0.031247
19.950000	0.031280
20.000000	0.031375
20.050000	0.031433
20.100000	0.031424
20.150000	0.031288
20.200000	0.031101
20.250000	0.031111
20.300000	0.031225
20.350000	0.031241
20.400000	0.031258
20.450000	0.031240
20.500000	0.031212
20.550000	0.031243
20.600000	0.031266
20.650000	0.031268
20.700000	0.031257
20.750000	0.031279
20.800000	0.031063
20.850000	0.030904
20.900000	0.030952
20.950000	0.031000
21.000000	0.031106
21.050000	0.031089
21.100000	0.031097
21.150000	0.031103
21.200000	0.031117
21.250000	0.031175
21.300000	0.031196
21.350000	0.031205
21.400000	0.031198
21.450000	0.031012
21.500000	0.030837
21.550000	0.030830
21.600000	0.030879
21.650000	0.030902
21.700000	0.030901
21.750000	0.030884
21.800000	0.030874
21.850000	0.030902
21.900000	0.030999
21.950000	0.031021
22.000000	0.031007
22.050000	0.031066
22.100000	0.030927
22.150000	0.030719
22.200000	0.030707
22.250000	0.030753
22.300000	0.030829
22.350000	0.030828
22.400000	0.030792
22.450000	0.030773
22.500000	0.030815
22.550000	0.030810
22.600000	0.030790
22.650000	0.030832
22.700000	0.030858
22.750000	0.030797
22.800000	0.030579
22.850000	0.030541
22.900000	0.030597
22.950000	0.030659
23.000000	0.030687
23.050000	0.030665
23.100000	0.030648
23.150000	0.030666
23.200000	0.030708
23.250000	0.030730
23.300000	0.030770
23.350000	0.030797
23.400000	0.030778
23.450000	0.030615
23.500000	0.030476
23.550000	0.030549
23.600000	0.030644
23.650000	0.030709
23.700000	0.030715
23.750000	0.030720
23.800000	0.030747
23.850000	0.030805
23.900000	0.030855
23.950000	0.030898
24.000000	0.030946
24.050000	0.030951
24.100000	0.030765
24.150000	0.030632
24.200000	0.030654
24.250000	0.030735
24.300000	0.030808
24.350000	0.030803
24.400000	0.030780
24.450000	0.030807
24.500000	0.030838
24.550000	0.030858
24.600000	0.030879
24.650000	0.030911
24.700000	0.030862
24.750000	0.030670
24.800000	0.030552
24.850000	0.030602
24.900000	0.030664
24.950000	0.030650
25.000000	0.030646
25.050000	0.030595
25.100000	0.030623
25.150000	0.030655
25.200000	0.030670
25.250000	0.030703
25.300000	0.030724
25.350000	0.030591
25.400000	0.030416
25.450000	0.030408
25.500000	0.030452
25.550000	0.030528
25.600000	0.030535
25.650000	0.030509
25.700000	0.030558
25.750000	0.030609
25.800000	0.030649
25.850000	0.030672
25.900000	0.030718
25.950000	0.030709
26.000000	0.030561
26.050000	0.030420
26.100000	0.030444
26.150000	0.030507
26.200000	0.030561
26.250000	0.030548
26.300000	0.030540
26.350000	0.030543
26.400000	0.030561
26.450000	0.030580
26.500000	0.030604
26.550000	0.030631
26.600000	0.030627
26.650000	0.030463
26.700000	0.030290
26.750000	0.030319
26.800000	0.030389
26.850000	0.030470
26.900000	0.030483
26.950000	0.030472
27.000000	0.030518
27.050000	0.030551
27.100000	0.030594
27.150000	0.030605
27.200000	0.030595
27.250000	0.030671
27.300000	0.030586
27.350000	0.030376
27.400000	0.030346
27.450000	0.030349
27.500000	0.030398
27.550000	0.030410
27.600000	0.030375
27.650000	0.030427
27.700000	0.030450
27.750000	0.030523
27.800000	0.030555
27.850000	0.030584
27.900000	0.030613
27.950000	0.030586
28.000000	0.030422
28.050000	0.030337
28.100000	0.030391
28.150000	0.030472
28.200000	0.030498
28.250000	0.030498
28.300000	0.030497
28.350000	0.030496
28.400000	0.030517
28.450000	0.030521
28.500000	0.030533
28.550000	0.030529
28.600000	0.030540
28.650000	0.030407
28.700000	0.030200
28.750000	0.030193
28.800000	0.030236
28.850000	0.030307
28.900000	0.030326
28.950000	0.030282
29.000000	0.030302
29.050000	0.030299
29.100000	0.030316
29.150000	0.030302
29.200000	0.030304
29.250000	0.030319
29.300000	0.030309
29.350000	0.030124
29.400000	0.029995
29.450000	0.030017
29.500000	0.030049
29.550000	0.030088
29.600000	0.030090
29.650000	0.030076
29.700000	0.030074
29.750000	0.030110
29.800000	0.030127
29.850000	0.030145
29.900000	0.030170
29.950000	0.030184
30.000000	0.030213
30.050000	0.030045
30.100000	0.029898
30.150000	0.029919
30.200000	0.029980
30.250000	0.030007
30.300000	0.030023
30.350000	0.029999
30.400000	0.029990
30.450000	0.030029
30.500000	0.030038
30.550000	0.030077
30.600000	0.030082
30.650000	0.030135
30.700000	0.030115
30.750000	0.029945
30.800000	0.029826
30.850000	0.029845
30.900000	0.029934
30.950000	0.029983
31.000000	0.029988
31.050000	0.029978
31.100000	0.029994
31.150000	0.030025
31.200000	0.030063
31.250000	0.030082
31.300000	0.030116
31.350000	0.030130
31.400000	0.030115
31.450000	0.029947
31.500000	0.029845
31.550000	0.029877
31.600000	0.029979
31.650000	0.030068
31.700000	0.030070
31.750000	0.030064
31.800000	0.030069
31.850000	0.030136
31.900000	0.030175
31.950000	0.030212
32.000000	0.030250
32.050000	0.030269
32.100000	0.030200
32.150000	0.029992
32.200000	0.029952
32.250000	0.030001
32.300000	0.030069
32.350000	0.030080
32.400000	0.030050
32.450000	0.030042
32.500000	0.030064
32.550000	0.030056
32.600000	0.030106
32.650000	0.030108
32.700000	0.030145
32.750000	0.030093
32.800000	0.029891
32.850000	0.029791
32.900000	0.029832
32.950000	0.029883
33.000000	0.029918
33.050000	0.029882
33.100000	0.029844
33.150000	0.029873
33.200000	0.029901
33.250000	0.029900
33.300000	0.029921
33.350000	0.029926
33.400000	0.029870
33.450000	0.029652
33.500000	0.029554
33.550000	0.029586
33.600000	0.029616
33.650000	0.029646
33.700000	0.029643
33.750000	0.029617
33.800000	0.029617
33.850000	0.029622
33.900000	0.029662
33.950000	0.029681
34.000000	0.029716
34.050000	0.029647
34.100000	0.029471
34.150000	0.029414
34.200000	0.029438
34.250000	0.029523
34.300000	0.029556
34.350000	0.029551
34.400000	0.029527
34.450000	0.029550
34.500000	0.029571
34.550000	0.029581
34.600000	0.029620
34.650000	0.029655
34.700000	0.029564
34.750000	0.029363
34.800000	0.029318
34.850000	0.029382
34.900000	0.029480
34.950000	0.029516
35.000000	0.029557
35.050000	0.029559
35.100000	0.029623
35.150000	0.029663
35.200000	0.029694
35.250000	0.029725
35.300000	0.029754
35.350000	0.029657
35.400000	0.029472
35.450000	0.029425
35.500000	0.029496
35.550000	0.029552
35.600000	0.029597
35.650000	0.029621
35.700000	0.029613
35.750000	0.029664
35.800000	0.029693
35.850000	0.029713
35.900000	0.029742
35.950000	0.029785
36.000000	0.029680
36.050000	0.029491
36.100000	0.029486
36.150000	0.029567
36.200000	0.029620
36.250000	0.029650
36.300000	0.029640
36.350000	0.029644
36.400000	0.029659
36.450000	0.029691
36.500000	0.029700
36.550000	0.029702
36.600000	0.029695
36.650000	0.029538
36.700000	0.029350
36.750000	0.029368
36.800000	0.029405
36.850000	0.029458
36.900000	0.029463
36.950000	0.029452
37.000000	0.029472
37.050000	0.029498
37.100000	0.029515
37.150000	0.029525
37.200000	0.029563
37.250000	0.029577
37.300000	0.029477
37.350000	0.029307
37.400000	0.029298
37.450000	0.029332
37.500000	0.029364
37.550000	0.029384
37.600000	0.029367
37.650000	0.029382
37.700000	0.029404
37.750000	0.029426
37.800000	0.029465
37.850000	0.029491
37.900000	0.029551
37.950000	0.029471
38.000000	0.029288
38.050000	0.029268
38.100000	0.029309
38.150000	0.029380
38.200000	0.029398
38.250000	0.029387
38.300000	0.029415
38.350000	0.029441
38.400000	0.029474
38.450000	0.029510
38.500000	0.029558
38.550000	0.029591
38.600000	0.029585
38.650000	0.029429
38.700000	0.029328
38.750000	0.029388
38.800000	0.029449
38.850000	0.029481
38.900000	0.029485
38.950000	0.029463
39.000000	0.029505
39.050000	0.029529
39.100000	0.029596
39.150000	0.029594
39.200000	0.029637
39.250000	0.029660
39.300000	0.029535
39.350000	0.029371
39.400000	0.029366
39.450000	0.029439
39.500000	0.029505
39.550000	0.029494
39.600000	0.029473
39.650000	0.029485
39.700000	0.029512
39.750000	0.029526
39.800000	0.029568
39.850000	0.029583
39.900000	0.029583
39.950000	0.029451
40.000000	0.029286
40.050000	0.029286
40.100000	0.029323
40.150000	0.029373
40.200000	0.029398
40.250000	0.029363
40.300000	0.029365
40.350000	0.029390
40.400000	0.029426
40.450000	0.029474
40.500000	0.029486
40.550000	0.029486
40.600000	0.029370
40.650000	0.029199
40.700000	0.029165
40.750000	0.029218
40.800000	0.029253
40.850000	0.029277
40.900000	0.029250
40.950000	0.029272
41.000000	0.029327
41.050000	0.029361
41.100000	0.029386
41.150000	0.029433
41.200000	0.029434
41.250000	0.029286
41.300000	0.029186
41.350000	0.029220
41.400000	0.029280
41.450000	0.029335
41.500000	0.029340
41.550000	0.029315
41.600000	0.029321
41.650000	0.029375
41.700000	0.029400
41.750000	0.029442
41.800000	0.029488
41.850000	0.029455
41.900000	0.029276
41.950000	0.029223
42.000000	0.029303
42.050000	0.029392
42.100000	0.029439
42.150000	0.029429
42.200000	0.029420
42.250000	0.029469
42.300000	0.029481
42.350000	0.029520
42.400000	0.029578
42.450000	0.029574
42.500000	0.029450
42.550000	0.029281
42.600000	0.029270
42.650000	0.029334
42.700000	0.029372
42.750000	0.029401
42.800000	0.029371
42.850000	0.029391
42.900000	0.029436
42.950000	0.029474
43.000000	0.029528
43.050000	0.029563
43.100000	0.029532
43.150000	0.029343
43.200000	0.029274
43.250000	0.029356
43.300000	0.029418
43.350000	0.029453
43.400000	0.029444
43.450000	0.029425
43.500000	0.029437
43.550000	0.029455
43.600000	0.029487
43.650000	0.029483
43.700000	0.029486
43.750000	0.029331
43.800000	0.029168
43.850000	0.029198
43.900000	0.029245
43.950000	0.029288
44.000000	0.029313
44.050000	0.029273
44.100000	0.029302
44.150000	0.029342
44.200000	0.029376
44.250000	0.029402
44.300000	0.029428
44.350000	0.029405
44.400000	0.029227
44.450000	0.029138
44.500000	0.029158
44.550000	0.029232
44.600000	0.029263
44.650000	0.029266
44.700000	0.029218
44.750000	0.029241
44.800000	0.029279
44.850000	0.029307
44.900000	0.029359
44.950000	0.029380
45.000000	0.029369
45.050000	0.029181
45.100000	0.029086
45.150000	0.029134
45.200000	0.029179
45.250000	0.029221
45.300000	0.029222
45.350000	0.029185
45.400000	0.029213
45.450000	0.029258
45.500000	0.029293
45.550000	0.029336
45.600000	0.029380
45.650000	0.029379
45.700000	0.029222
45.750000	0.029103
45.800000	0.029142
45.850000	0.029219
45.900000	0.029280
45.950000	0.029285
46.000000	0.029296
46.050000	0.029306
46.100000	0.029338
46.150000	0.029366
46.200000	0.029401
46.250000	0.029433
46.300000	0.029431
46.350000	0.029327
46.400000	0.029167
46.450000	0.029188
46.500000	0.029273
46.550000	0.029319
46.600000	0.029338
46.650000	0.029322
46.700000	0.029338
46.750000	0.029365
46.800000	0.029397
46.850000	0.029433
46.900000	0.029452
46.950000	0.029458
47.000000	0.029319
47.050000	0.029144
47.100000	0.029148
47.150000	0.029206
47.200000	0.029230
47.250000	0.029238
47.300000	0.029210
47.350000	0.029224
47.400000	0.029260
47.450000	0.029275
47.500000	0.029307
47.550000	0.029312
47.600000	0.029273
47.650000	0.029078
47.700000	0.028936
47.750000	0.028983
47.800000	0.029026
47.850000	0.029043
47.900000	0.029053
47.950000	0.029055
48.000000	0.029093
48.050000	0.029096
48.100000	0.029140
48.150000	0.029173
48.200000	0.029209
48.250000	0.029179
48.300000	0.028987
48.350000	0.028982
48.400000	0.029011
48.450000	0.029079
48.500000	0.029159
48.550000	0.029127
48.600000	0.029137
48.650000	0.029187
48.700000	0.029200
48.750000	0.029226
48.800000	0.029293
48.850000	0.029311
48.900000	0.029187
48.950000	0.029026
49.000000	0.029038
49.050000	0.029071
49.100000	0.029103
49.150000	0.029124
49.200000	0.029099
49.250000	0.029092
49.300000	0.029151
49.350000	0.029187
49.400000	0.029217
49.450000	0.029247
49.500000	0.029125
49.550000	0.028950
49.600000	0.028955
49.650000	0.029019
49.700000	0.029065
49.750000	0.029080
49.800000	0.029073
49.850000	0.029061
49.900000	0.029120
49.950000	0.029151
50.000000	0.029207
50.050000	0.029191
50.100000	0.029012
50.150000	0.028892
50.200000	0.028944
50.250000	0.029033
50.300000	0.029078
50.350000	0.029100
50.400000	0.029105
50.450000	0.029129
50.500000	0.029166
50.550000	0.029203
50.600000	0.029249
50.650000	0.029276
50.700000	0.029086
50.750000	0.028991
50.800000	0.029050
50.850000	0.029150
50.900000	0.029193
50.950000	0.029201
51.000000	0.029217
51.050000	0.029243
51.100000	0.029250
51.150000	0.029314
51.200000	0.029375
51.250000	0.029350
51.300000	0.029186
51.350000	0.029080
51.400000	0.029107
51.450000	0.029188
51.500000	0.029213
51.550000	0.029175
51.600000	0.029144
51.650000	0.029188
51.700000	0.029167
51.750000	0.029185
51.800000	0.029164
51.850000	0.029132
51.900000	0.028947
51.950000	0.028768
52.000000	0.028805
52.050000	0.028895
52.100000	0.028943
52.150000	0.028960
52.200000	0.028944
52.250000	0.028965
52.300000	0.029010
52.350000	0.029030
52.400000	0.029075
52.450000	0.029106
52.500000	0.028971
52.550000	0.028783
52.600000	0.028766
52.650000	0.028832
52.700000	0.028880
52.750000	0.028888
52.800000	0.028855
52.850000	0.028844
52.900000	0.028907
52.950000	0.028937
53.000000	0.028986
53.050000	0.029013
53.100000	0.029020
53.150000	0.028905
53.200000	0.028736
53.250000	0.028726
53.300000	0.028797
53.350000	0.028858
53.400000	0.028896
53.450000	0.028877
53.500000	0.028881
53.550000	0.028944
53.600000	0.028991
53.650000	0.029038
53.700000	0.029070
53.750000	0.029105
53.800000	0.029094
53.850000	0.028885
53.900000	0.028771
53.950000	0.028798
54.000000	0.028880
54.050000	0.028932
54.100000	0.028960
54.150000	0.028985
54.200000	0.029030
54.250000	0.029110
54.300000	0.029171
54.350000	0.029207
54.400000	0.029250
54.450000	0.029310
54.500000	0.029272
54.550000	0.029076
54.600000	0.029034
54.650000	0.029050
54.700000	0.029137
54.750000	0.029136
54.800000	0.029121
54.850000	0.029098
54.900000	0.029131
54.950000	0.029192
55.000000	0.029241
55.050000	0.029298
55.100000	0.029370
55.150000	0.029404
55.200000	0.029253
55.250000	0.029128
55.300000	0.029181
55.350000	0.029245
55.400000	0.029260
55.450000	0.029267
55.500000	0.029226
55.550000	0.029235
55.600000	0.029280
55.650000	0.029301
55.700000	0.029319
55.750000	0.029337
55.800000	0.029353
55.850000	0.029208
55.900000	0.029055
55.950000	0.029073
56.000000	0.029150
56.050000	0.029192
56.100000	0.029192
56.150000	0.029177
56.200000	0.029186
56.250000	0.029238
56.300000	0.029280
56.350000	0.029344
56.400000	0.029371
56.450000	0.029385
56.500000	0.029231
56.550000	0.029082
56.600000	0.029122
56.650000	0.029165
56.700000	0.029205
56.750000	0.029222
56.800000	0.029182
56.850000	0.029213
56.900000	0.029263
56.950000	0.029308
57.000000	0.029377
57.050000	0.029407
57.100000	0.029403
57.150000	0.029216
57.200000	0.029116
57.250000	0.029161
57.300000	0.029267
57.350000	0.029313
57.400000	0.029304
57.450000	0.029300
57.500000	0.029324
57.550000	0.029382
57.600000	0.029420
57.650000	0.029466
57.700000	0.029490
57.750000	0.029415
57.800000	0.029216
57.850000	0.029194
57.900000	0.029243
57.950000	0.029332
58.000000	0.029389
58.050000	0.029368
58.100000	0.029365
58.150000	0.029439
58.200000	0.029472
58.250000	0.029528
58.300000	0.029598
58.350000	0.029625
58.400000	0.029479
58.450000	0.029317
58.500000	0.029307
58.550000	0.029402
58.600000	0.029480
58.650000	0.029488
58.700000	0.029486
58.750000	0.029512
58.800000	0.029563
58.850000	0.029595
58.900000	0.029651
58.950000	0.029681
59.000000	0.029632
59.050000	0.029423
59.100000	0.029361
59.150000	0.029427
59.200000	0.029484
59.250000	0.029507
59.300000	0.029497
59.350000	0.029499
59.400000	0.029533
59.450000	0.029566
59.500000	0.029595
59.550000	0.029631
59.600000	0.029621
59.650000	0.029443
59.700000	0.029319
59.750000	0.029357
59.800000	0.029407
59.850000	0.029460
59.900000	0.029438
59.950000	0.029411
60.000000	0.029450
60.050000	0.029484
60.100000	0.029521
60.150000	0.029567
60.200000	0.029620
60.250000	0.029501
60.300000	0.029315
60.350000	0.029286
60.400000	0.029346
60.450000	0.029404
60.500000	0.029419
60.550000	0.029393
60.600000	0.029403
60.650000	0.029457
60.700000	0.029483
60.750000	0.029508
60.800000	0.029557
60.850000	0.029573
60.900000	0.029444
60.950000	0.029276
61.000000	0.029270
61.050000	0.029318
61.100000	0.029362
61.150000	0.029396
61.200000	0.029364
61.250000	0.029388
61.300000	0.029433
61.350000	0.029456
61.400000	0.029505
61.450000	0.029519
61.500000	0.029553
61.550000	0.029420
61.600000	0.029271
61.650000	0.029295
61.700000	0.029355
61.750000	0.029450
61.800000	0.029451
61.850000	0.029446
61.900000	0.029476
61.950000	0.029524
62.000000	0.029556
62.050000	0.029607
62.100000	0.029652
62.150000	0.029685
62.200000	0.029566
62.250000	0.029391
62.300000	0.029359
62.350000	0.029433
62.400000	0.029486
62.450000	0.029482
62.500000	0.029483
62.550000	0.029471
62.600000	0.029514
62.650000	0.029583
62.700000	0.029630
62.750000	0.029671
62.800000	0.029702
62.850000	0.029644
62.900000	0.029446
62.950000	0.029453
63.000000	0.029526
63.050000	0.029607
63.100000	0.029615
63.150000	0.029573
63.200000	0.029578
63.250000	0.029599
63.300000	0.029629
63.350000	0.029663
63.400000	0.029676
63.450000	0.029679
63.500000	0.029509
63.550000	0.029369
63.600000	0.029388
63.650000	0.029453
63.700000	0.029521
63.750000	0.029532
63.800000	0.029496
63.850000	0.029543
63.900000	0.029601
63.950000	0.029632
64.000000	0.029649
64.050000	0.029679
64.100000	0.029655
64.150000	0.029449
64.200000	0.029360
64.250000	0.029360
64.300000	0.029467
64.350000	0.029488
64.400000	0.029435
64.450000	0.029455
64.500000	0.029490
64.550000	0.029524
64.600000	0.029566
64.650000	0.029589
64.700000	0.029638
64.750000	0.029582
64.800000	0.029380
64.850000	0.029317
64.900000	0.029386
64.950000	0.029433
65.000000	0.029484
65.050000	0.029464
65.100000	0.029454
65.150000	0.029480
65.200000	0.029533
65.250000	0.029577
65.300000	0.029602
65.350000	0.029631
65.400000	0.029613
65.450000	0.029424
65.500000	0.029333
65.550000	0.029413
65.600000	0.029486
65.650000	0.029530
65.700000	0.029530
65.750000	0.029568
65.800000	0.029600
65.850000	0.029657
65.900000	0.029685
65.950000	0.029731
66.000000	0.029761
66.050000	0.029795
66.100000	0.029680
66.150000	0.029507
66.200000	0.029531
66.250000	0.029588
66.300000	0.029671
66.350000	0.029697
66.400000	0.029675
66.450000	0.029719
66.500000	0.029770
66.550000	0.029827
66.600000	0.029857
66.650000	0.029874
66.700000	0.029899
66.750000	0.029829
66.800000	0.029640
66.850000	0.029587
66.900000	0.029641
66.950000	0.029723
67.000000	0.029763
67.050000	0.029761
67.100000	0.029765
67.150000	0.029839
67.200000	0.029897
67.250000	0.029936
67.300000	0.029966
67.350000	0.029996
67.400000	0.029945
67.450000	0.029689
67.500000	0.029630
67.550000	0.029662
67.600000	0.029739
67.650000	0.029784
67.700000	0.029765
67.750000	0.029769
67.800000	0.029811
67.850000	0.029865
67.900000	0.029903
67.950000	0.029906
68.000000	0.029928
68.050000	0.029872
68.100000	0.029660
68.150000	0.029588
68.200000	0.029640
68.250000	0.029696
68.300000	0.029715
68.350000	0.029703
68.400000	0.029686
68.450000	0.029742
68.500000	0.029772
68.550000	0.029818
68.600000	0.029858
68.650000	0.029907
68.700000	0.029829
68.750000	0.029630
68.800000	0.029587
68.850000	0.029626
68.900000	0.029687
68.950000	0.029716
69.000000	0.029683
69.050000	0.029711
69.100000	0.029776
69.150000	0.029809
69.200000	0.029821
69.250000	0.029854
69.300000	0.029898
69.350000	0.029800
69.400000	0.029605
69.450000	0.029632
69.500000	0.029729
69.550000	0.029808
69.600000	0.029902
69.650000	0.029892
69.700000	0.029909
69.750000	0.029963
69.800000	0.030002
69.850000	0.030067
69.900000	0.030084
69.950000	0.030104
70.000000	0.029999
70.050000	0.029798
70.100000	0.029763
70.150000	0.029840
70.200000	0.029879
70.250000	0.029908
70.300000	0.029886
70.350000	0.029903
70.400000	0.029975
70.450000	0.030018
70.500000	0.030079
70.550000	0.030129
70.600000	0.030190
70.650000	0.030103
70.700000	0.029906
70.750000	0.029892
70.800000	0.029968
70.850000	0.030044
70.900000	0.030068
70.950000	0.030035
71.000000	0.030034
71.050000	0.030065
71.100000	0.030091
71.150000	0.030137
71.200000	0.030153
71.250000	0.030179
71.300000	0.030035
71.350000	0.029816
71.400000	0.029798
71.450000	0.029852
71.500000	0.029870
71.550000	0.029877
71.600000	0.029860
71.650000	0.029855
71.700000	0.029907
71.750000	0.029931
71.800000	0.029969
71.850000	0.030008
71.900000	0.030030
71.950000	0.029915
72.000000	0.029697
72.050000	0.029693
72.100000	0.029732
72.150000	0.029789
72.200000	0.029820
72.250000	0.029792
72.300000	0.029791
72.350000	0.029815
72.400000	0.029835
72.450000	0.029869
72.500000	0.029908
72.550000	0.029938
72.600000	0.029885
72.650000	0.029671
72.700000	0.029608
72.750000	0.029654
72.800000	0.029718
72.850000	0.029766
72.900000	0.029749
72.950000	0.029735
73.000000	0.029773
73.050000	0.029803
73.100000	0.029843
73.150000	0.029856
73.200000	0.029902
73.250000	0.029929
73.300000	0.029739
73.350000	0.029661
73.400000	0.029732
73.450000	0.029813
73.500000	0.029870
73.550000	0.029884
73.600000	0.029889
73.650000	0.029917
73.700000	0.029949
73.750000	0.029989
73.800000	0.029988
73.850000	0.030027
73.900000	0.030035
73.950000	0.029897
74.000000	0.029738
74.050000	0.029732
74.100000	0.029837
74.150000	0.029878
74.200000	0.029842
74.250000	0.029832
74.300000	0.029855
74.350000	0.029897
74.400000	0.029948
74.450000	0.029962
74.500000	0.029989
74.550000	0.030013
74.600000	0.029868
74.650000	0.029743
74.700000	0.029789
74.750000	0.029878
74.800000	0.029972
74.850000	0.029984
74.900000	0.029955
74.950000	0.029979
75.000000	0.030019
75.050000	0.030067
75.100000	0.030089
75.150000	0.030132
75.200000	0.030099
75.250000	0.029876
75.300000	0.029797
75.350000	0.029859
75.400000	0.029913
75.450000	0.029960
75.500000	0.029945
75.550000	0.029905
75.600000	0.029960
75.650000	0.029971
75.700000	0.030025
75.750000	0.030067
75.800000	0.030083
75.850000	0.029958
75.900000	0.029748
75.950000	0.029753
76.000000	0.029805
76.050000	0.029869
76.100000	0.029887
76.150000	0.029850
76.200000	0.029852
76.250000	0.029892
76.300000	0.029917
76.350000	0.029972
76.400000	0.029994
76.450000	0.029982
76.500000	0.029815
76.550000	0.029665
76.600000	0.029710
76.650000	0.029762
76.700000	0.029808
76.750000	0.029815
76.800000	0.029788
76.850000	0.029814
76.900000	0.029860
76.950000	0.029899
77.000000	0.029940
77.050000	0.029988
77.100000	0.029972
77.150000	0.029746
77.200000	0.029664
77.250000	0.029724
77.300000	0.029794
77.350000	0.029852
77.400000	0.029843
77.450000	0.029850
77.500000	0.029907
77.550000	0.029946
77.600000	0.030004
77.650000	0.030057
77.700000	0.030084
77.750000	0.030025
77.800000	0.029840
77.850000	0.029812
77.900000	0.029888
77.950000	0.029996
78.000000	0.030033
78.050000	0.029991
78.100000	0.030007
78.150000	0.030064
78.200000	0.030110
78.250000	0.030142
78.300000	0.030173
78.350000	0.030198
78.400000	0.030061
78.450000	0.029879
78.500000	0.029907
78.550000	0.030003
78.600000	0.030077
78.650000	0.030086
78.700000	0.030064
78.750000	0.030107
78.800000	0.030158
78.850000	0.030226
78.900000	0.030264
78.950000	0.030289
79.000000	0.030245
79.050000	0.030037
79.100000	0.029939
79.150000	0.030034
79.200000	0.030111
79.250000	0.030142
79.300000	0.030103
79.350000	0.030079
79.400000	0.030114
79.450000	0.030139
79.500000	0.030155
79.550000	0.030172
79.600000	0.030199
79.650000	0.030035
79.700000	0.029836
79.750000	0.029855
79.800000	0.029904
79.850000	0.029957
79.900000	0.029981
79.950000	0.029939
80.000000	0.029974
80.050000	0.030000
80.100000	0.030037
80.150000	0.030061
80.200000	0.030102
80.250000	0.030058
80.300000	0.029827
80.350000	0.029703
80.400000	0.029755
80.450000	0.029807
80.500000	0.029860
80.550000	0.029850
80.600000	0.029848
80.650000	0.029893
80.700000	0.029936
80.750000	0.029975
80.800000	0.030019
80.850000	0.030034
80.900000	0.030018
80.950000	0.029858
81.000000	0.029744
81.050000	0.029771
81.100000	0.029855
81.150000	0.029905
81.200000	0.029892
81.250000	0.029875
81.300000	0.029921
81.350000	0.029969
81.400000	0.030029
81.450000	0.030067
81.500000	0.030118
81.550000	0.030184
81.600000	0.030078
81.650000	0.029909
81.700000	0.029935
81.750000	0.030036
81.800000	0.030119
81.850000	0.030138
81.900000	0.030099
81.950000	0.030119
82.000000	0.030164
82.050000	0.030196
82.100000	0.030230
82.150000	0.030274
82.200000	0.030304
82.250000	0.030244
82.300000	0.030046
82.350000	0.029986
82.400000	0.030080
82.450000	0.030177
82.500000	0.030203
82.550000	0.030190
82.600000	0.030184
82.650000	0.030251
82.700000	0.030312
82.750000	0.030356
82.800000	0.030368
82.850000	0.030410
82.900000	0.030393
82.950000	0.030176
83.000000	0.030085
83.050000	0.030143
83.100000	0.030221
83.150000	0.030238
83.200000	0.030218
83.250000	0.030182
83.300000	0.030220
83.350000	0.030257
83.400000	0.030289
83.450000	0.030300
83.500000	0.030333
83.550000	0.030296
83.600000	0.030060
83.650000	0.029982
83.700000	0.030033
83.750000	0.030102
83.800000	0.030115
83.850000	0.030100
83.900000	0.030068
83.950000	0.030095
84.000000	0.030147
84.050000	0.030173
84.100000	0.030188
84.150000	0.030245
84.200000	0.030187
84.250000	0.029966
84.300000	0.029905
84.350000	0.029963
84.400000	0.030011
84.450000	0.030074
84.500000	0.030042
84.550000	0.030031
84.600000	0.030077
84.650000	0.030131
84.700000	0.030155
84.750000	0.030179
84.800000	0.030232
84.850000	0.030163
84.900000	0.029943
84.950000	0.029892
85.000000	0.029961
85.050000	0.030041
85.100000	0.030078
85.150000	0.030068
85.200000	0.030053
85.250000	0.030095
85.300000	0.030142
85.350000	0.030219
85.400000	0.030255
85.450000	0.030309
85.500000	0.030242
85.550000	0.030016
85.600000	0.029996
85.650000	0.030083
85.700000	0.030186
85.750000	0.030221
85.800000	0.030204
85.850000	0.030216
85.900000	0.030301
85.950000	0.030353
86.000000	0.030395
86.050000	0.030426
86.100000	0.030444
86.150000	0.030346
86.200000	0.030112
86.250000	0.030094
86.300000	0.030184
86.350000	0.030263
86.400000	0.030260
86.450000	0.030225
86.500000	0.030206
86.550000	0.030252
86.600000	0.030302
86.650000	0.030339
86.700000	0.030374
86.750000	0.030407
86.800000	0.030236
86.850000	0.030070
86.900000	0.030123
86.950000	0.030211
87.000000	0.030287
87.050000	0.030263
87.100000	0.030238
87.150000	0.030274
87.200000	0.030315
87.250000	0.030352
87.300000	0.030375
87.350000	0.030393
87.400000	0.030306
87.450000	0.030081
87.500000	0.030010
87.550000	0.030086
87.600000	0.030155
87.650000	0.030180
87.700000	0.030155
87.750000	0.030151
87.800000	0.030191
87.850000	0.030250
87.900000	0.030267
87.950000	0.030298
88.000000	0.030293
88.050000	0.030112
88.100000	0.029951
88.150000	0.029979
88.200000	0.030019
88.250000	0.030074
88.300000	0.030069
88.350000	0.030025
88.400000	0.030070
88.450000	0.030096
88.500000	0.030158
88.550000	0.030178
88.600000	0.030226
88.650000	0.030198
88.700000	0.029967
88.750000	0.029889
88.800000	0.029942
88.850000	0.030007
88.900000	0.030019
88.950000	0.029989
89.000000	0.029982
89.050000	0.030024
89.100000	0.030066
89.150000	0.030129
89.200000	0.030188
89.250000	0.030233
89.300000	0.030160
89.350000	0.029952
89.400000	0.029915
89.450000	0.030019
89.500000	0.030090
89.550000	0.030133
89.600000	0.030116
89.650000	0.030122
89.700000	0.030197
89.750000	0.030219
89.800000	0.030259
89.850000	0.030292
89.900000	0.030318
89.950000	0.030234
90.000000	0.030013
90.050000	0.030003
90.100000	0.030102
90.150000	0.030170
90.200000	0.030207
90.250000	0.030187
90.300000	0.030206
90.350000	0.030258
90.400000	0.030292
90.450000	0.030350
90.500000	0.030369
90.550000	0.030391
90.600000	0.030206
90.650000	0.030036
90.700000	0.030071
90.750000	0.030162
90.800000	0.030202
90.850000	0.030209
90.900000	0.030194
90.950000	0.030213
91.000000	0.030270
91.050000	0.030313
91.100000	0.030343
91.150000	0.030367
91.200000	0.030294
91.250000	0.030034
91.300000	0.029967
91.350000	0.030018
91.400000	0.030062
91.450000	0.030078
91.500000	0.030076
91.550000	0.030054
91.600000	0.030110
91.650000	0.030154
91.700000	0.030196
91.750000	0.030235
91.800000	0.030238
91.850000	0.030053
91.900000	0.029854
91.950000	0.029854
92.000000	0.029930
92.050000	0.029953
92.100000	0.029970
92.150000	0.029937
92.200000	0.029949
92.250000	0.030011
92.300000	0.030044
92.350000	0.030106
92.400000	0.030157
92.450000	0.030151
92.500000	0.029933
92.550000	0.029778
92.600000	0.029833
92.650000	0.029916
92.700000	0.029976
92.750000	0.029977
92.800000	0.029965
92.850000	0.030022
92.900000	0.030098
92.950000	0.030147
93.000000	0.030217
93.050000	0.030283
93.100000	0.030283
93.150000	0.030055
93.200000	0.029968
93.250000	0.030035
93.300000	0.030130
93.350000	0.030197
93.400000	0.030171
93.450000	0.030176
93.500000	0.030197
93.550000	0.030237
93.600000	0.030279
93.650000	0.030321
93.700000	0.030365
93.750000	0.030300
93.800000	0.030097
93.850000	0.030032
93.900000	0.030127
93.950000	0.030232
94.000000	0.030280
94.050000	0.030254
94.100000	0.030235
94.150000	0.030272
94.200000	0.030319
94.250000	0.030363
94.300000	0.030382
94.350000	0.030401
94.400000	0.030285
94.450000	0.030042
94.500000	0.030058
94.550000	0.030137
94.600000	0.030253
94.650000	0.030269
94.700000	0.030228
94.750000	0.030235
94.800000	0.030254
94.850000	0.030308
94.900000	0.030343
94.950000	0.030382
95.000000	0.030390
95.050000	0.030192
95.100000	0.030016
95.150000	0.030056
95.200000	0.030136
95.250000	0.030200
95.300000	0.030190
95.350000	0.030158
95.400000	0.030173
95.450000	0.030224
95.500000	0.030246
95.550000	0.030273
95.600000	0.030301
95.650000	0.030283
95.700000	0.030064
95.750000	0.029949
95.800000	0.030003
95.850000	0.030104
95.900000	0.030171
95.950000	0.030161
96.000000	0.030165
96.050000	0.030262
96.100000	0.030299
96.150000	0.030364
96.200000	0.030388
96.250000	0.030430
96.300000	0.030381
96.350000	0.030133
96.400000	0.030047
96.450000	0.030104
96.500000	0.030175
96.550000	0.030237
96.600000	0.030227
96.650000	0.030235
96.700000	0.030319
96.750000	0.030385
96.800000	0.030468
96.850000	0.030495
96.900000	0.030550
96.950000	0.030476
97.000000	0.030246
97.050000	0.030234
97.100000	0.030356
97.150000	0.030461
97.200000	0.030511
97.250000	0.030493
97.300000	0.030494
97.350000	0.030563
97.400000	0.030629
97.450000	0.030682
97.500000	0.030742
97.550000	0.030789
97.600000	0.030620
97.650000	0.030426
97.700000	0.030481
97.750000	0.030584
97.800000	0.030665
97.850000	0.030667
97.900000	0.030645
97.950000	0.030665
98.000000	0.030719
98.050000	0.030770
98.100000	0.030809
98.150000	0.030860
98.200000	0.030743
98.250000	0.030490
98.300000	0.030438
98.350000	0.030537
98.400000	0.030635
98.450000	0.030647
98.500000	0.030605
98.550000	0.030598
98.600000	0.030633
98.650000	0.030660
98.700000	0.030677
98.750000	0.030741
98.800000	0.030630
98.850000	0.030374
98.900000	0.030313
98.950000	0.030376
99.000000	0.030475
99.050000	0.030501
99.100000	0.030457
99.150000	0.030455
99.200000	0.030492
99.250000	0.030532
99.300000	0.030599
99.350000	0.030626
99.400000	0.030569
99.450000	0.030313
99.500000	0.030204
99.550000	0.030262
99.600000	0.030371
99.650000	0.030399
99.700000	0.030375
99.750000	0.030384
99.800000	0.030413
99.850000	0.030460
99.900000	0.030513
99.950000	0.030564
100.000000	0.030568
100.050000	0.030384
100.100000	0.030214
100.150000	0.030259
100.200000	0.030331
100.250000	0.030414
100.300000	0.030418
100.350000	0.030380
100.400000	0.030417
100.450000	0.030506
100.500000	0.030522
100.550000	0.030595
100.600000	0.030641
100.650000	0.030548
100.700000	0.030321
100.750000	0.030320
100.800000	0.030408
100.850000	0.030502
100.900000	0.030541
100.950000	0.030529
101.000000	0.030532
101.050000	0.030570
101.100000	0.030606
101.150000	0.030656
101.200000	0.030685
101.250000	0.030679
101.300000	0.030430
101.350000	0.030318
101.400000	0.030394
101.450000	0.030489
101.500000	0.030563
101.550000	0.030543
101.600000	0.030518
101.650000	0.030581
101.700000	0.030616
101.750000	0.030660
101.800000	0.030699
101.850000	0.030710
101.900000	0.030533
101.950000	0.030324
102.000000	0.030325
102.050000	0.030419
102.100000	0.030497
102.150000	0.030458
102.200000	0.030446
102.250000	0.030465
102.300000	0.030503
102.350000	0.030540
102.400000	0.030567
102.450000	0.030589
102.500000	0.030500
102.550000	0.030252
102.600000	0.030167
102.650000	0.030243
102.700000	0.030292
102.750000	0.030351
102.800000	0.030329
102.850000	0.030318
102.900000	0.030363
102.950000	0.030428
103.000000	0.030470
103.050000	0.030502
103.100000	0.030534
103.150000	0.030353
103.200000	0.030146
103.250000	0.030147
103.300000	0.030242
103.350000	0.030320
103.400000	0.030332
103.450000	0.030304
103.500000	0.030334
103.550000	0.030409
103.600000	0.030451
103.650000	0.030494
103.700000	0.030532
103.750000	0.030568
103.800000	0.030398
103.850000	0.030185
103.900000	0.030202
103.950000	0.030291
104.000000	0.030387
104.050000	0.030390
104.100000	0.030363
104.150000	0.030408
104.200000	0.030476
104.250000	0.030532
104.300000	0.030584
104.350000	0.030657
104.400000	0.030709
104.450000	0.030564
104.500000	0.030352
104.550000	0.030360
104.600000	0.030456
104.650000	0.030533
104.700000	0.030515
104.750000	0.030476
104.800000	0.030488
104.850000	0.030552
104.900000	0.030611
104.950000	0.030651
105.000000	0.030704
105.050000	0.030690
105.100000	0.030483
105.150000	0.030353
105.200000	0.030439
105.250000	0.030537
105.300000	0.030588
105.350000	0.030560
105.400000	0.030520
105.450000	0.030557
105.500000	0.030584
105.550000	0.030614
105.600000	0.030661
105.650000	0.030678
105.700000	0.030567
105.750000	0.030291
105.800000	0.030256
105.850000	0.030352
105.900000	0.030430
105.950000	0.030432
106.000000	0.030409
106.050000	0.030416
106.100000	0.030425
106.150000	0.030482
106.200000	0.030507
106.250000	0.030559
106.300000	0.030525
106.350000	0.030264
106.400000	0.030119
106.450000	0.030185
106.500000	0.030254
106.550000	0.030279
106.600000	0.030250
106.650000	0.030236
106.700000	0.030272
106.750000	0.030330
106.800000	0.030373
106.850000	0.030450
106.900000	0.030451
106.950000	0.030263
107.000000	0.030052
107.050000	0.030053
107.100000	0.030162
107.150000	0.030220
107.200000	0.030235
107.250000	0.030219
107.300000	0.030230
107.350000	0.030303
107.400000	0.030361
107.450000	0.030415
107.500000	0.030476
107.550000	0.030378
107.600000	0.030128
107.650000	0.030099
107.700000	0.030220
107.750000	0.030319
107.800000	0.030358
107.850000	0.030358
107.900000	0.030378
107.950000	0.030427
108.000000	0.030515
108.050000	0.030552
108.100000	0.030620
108.150000	0.030603
108.200000	0.030374
108.250000	0.030249
108.300000	0.030339
108.350000	0.030453
108.400000	0.030510
108.450000	0.030512
108.500000	0.030508
108.550000	0.030553
108.600000	0.030617
108.650000	0.030660
108.700000	0.030708
108.750000	0.030728
108.800000	0.030519
108.850000	0.030296
108.900000	0.030316
108.950000	0.030385
109.000000	0.030422
109.050000	0.030373
109.100000	0.030336
109.150000	0.030342
109.200000	0.030387
109.250000	0.030462
109.300000	0.030503
109.350000	0.030519
109.400000	0.030445
109.450000	0.030176
109.500000	0.030114
109.550000	0.030182
109.600000	0.030313
109.650000	0.030356
109.700000	0.030334
109.750000	0.030349
109.800000	0.030428
109.850000	0.030473
109.900000	0.030506
109.950000	0.030538
110.000000	0.030549
110.050000	0.030339
110.100000	0.030185
110.150000	0.030259
110.200000	0.030389
110.250000	0.030446
110.300000	0.030445
110.350000	0.030444
110.400000	0.030472
110.450000	0.030514
110.500000	0.030550
110.550000	0.030597
110.600000	0.030659
110.650000	0.030649
110.700000	0.030370
110.750000	0.030237
110.800000	0.030293
110.850000	0.030371
110.900000	0.030416
110.950000	0.030412
111.000000	0.030437
111.050000	0.030516
111.100000	0.030598
111.150000	0.030657
111.200000	0.030698
111.250000	0.030738
111.300000	0.030747
111.350000	0.030502
111.400000	0.030389
111.450000	0.030463
111.500000	0.030564
111.550000	0.030618
111.600000	0.030592
111.650000	0.030601
111.700000	0.030637
111.750000	0.030691
111.800000	0.030735
111.850000	0.030767
111.900000	0.030804
111.950000	0.030813
112.000000	0.030585
112.050000	0.030399
112.100000	0.030459
112.150000	0.030590
112.200000	0.030698
112.250000	0.030687
112.300000	0.030696
112.350000	0.030757
112.400000	0.030834
112.450000	0.030906
112.500000	0.030939
112.550000	0.030968
112.600000	0.030992
112.650000	0.030804
112.700000	0.030589
112.750000	0.030611
112.800000	0.030760
112.850000	0.030834
112.900000	0.030828
112.950000	0.030815
113.000000	0.030850
113.050000	0.030922
113.100000	0.030992
113.150000	0.031035
113.200000	0.031102
113.250000	0.031081
113.300000	0.030815
113.350000	0.030684
113.400000	0.030774
113.450000	0.030868
113.500000	0.030921
113.550000	0.030875
113.600000	0.030845
113.650000	0.030887
113.700000	0.030944
113.750000	0.030988
113.800000	0.031036
113.850000	0.031031
113.900000	0.030789
113.950000	0.030583
114.000000	0.030640
114.050000	0.030743
114.100000	0.030806
114.150000	0.030797
114.200000	0.030744
114.250000	0.030777
114.300000	0.030828
114.350000	0.030874
114.400000	0.030891
114.450000	0.030903
114.500000	0.030705
114.550000	0.030472
114.600000	0.030510
114.650000	0.030618
114.700000	0.030681
114.750000	0.030668
114.800000	0.030622
114.850000	0.030679
114.900000	0.030721
114.950000	0.030772
115.000000	0.030829
115.050000	0.030875
115.100000	0.030689
115.150000	0.030439
115.200000	0.030458
115.250000	0.030561
115.300000	0.030651
115.350000	0.030633
115.400000	0.030600
115.450000	0.030604
115.500000	0.030663
115.550000	0.030723
115.600000	0.030767
115.650000	0.030806
115.700000	0.030638
115.750000	0.030396
115.800000	0.030424
115.850000	0.030547
115.900000	0.030676
115.950000	0.030690
116.000000	0.030659
116.050000	0.030693
116.100000	0.030746
116.150000	0.030816
116.200000	0.030886
116.250000	0.030911
116.300000	0.030815
116.350000	0.030535
116.400000	0.030502
116.450000	0.030649
116.500000	0.030761
116.550000	0.030776
116.600000	0.030749
116.650000	0.030771
116.700000	0.030821
116.750000	0.030865
116.800000	0.030899
116.850000	0.030949
116.900000	0.030845
116.950000	0.030517
117.000000	0.030463
117.050000	0.030610
117.100000	0.030699
117.150000	0.030742
117.200000	0.030700
117.250000	0.030719
117.300000	0.030774
117.350000	0.030816
117.400000	0.030836
117.450000	0.030882
117.500000	0.030789
117.550000	0.030474
117.600000	0.030395
117.650000	0.030481
117.700000	0.030598
117.750000	0.030619
117.800000	0.030583
117.850000	0.030569
117.900000	0.030604
117.950000	0.030675
118.000000	0.030696
118.050000	0.030721
118.100000	0.030703
118.150000	0.030401
118.200000	0.030245
118.250000	0.030304
118.300000	0.030408
118.350000	0.030466
118.400000	0.030451
118.450000	0.030437
118.500000	0.030487
118.550000	0.030537
118.600000	0.030574
118.650000	0.030615
118.700000	0.030667
118.750000	0.030572
118.800000	0.030274
118.850000	0.030212
118.900000	0.030297
118.950000	0.030381
119.000000	0.030433
119.050000	0.030406
119.100000	0.030410
119.150000	0.030471
119.200000	0.030518
119.250000	0.030547
119.300000	0.030580
119.350000	0.030630
119.400000	0.030545
119.450000	0.030225
119.500000	0.030202
119.550000	0.030286
119.600000	0.030386
119.650000	0.030410
119.700000	0.030371
119.750000	0.030382
119.800000	0.030461
119.850000	0.030538
119.900000	0.030587
119.950000	0.030648
120.000000	0.030687
120.050000	0.030604
120.100000	0.030342
120.150000	0.030301
120.200000	0.030445
120.250000	0.030568
120.300000	0.030592
120.350000	0.030578
120.400000	0.030585
120.450000	0.030643
120.500000	0.030726
120.550000	0.030739
120.600000	0.030767
120.650000	0.030793
120.700000	0.030693
120.750000	0.030414
120.800000	0.030365
120.850000	0.030511
120.900000	0.030633
120.950000	0.030669
121.000000	0.030632
121.050000	0.030619
121.100000	0.030667
121.150000	0.030712
121.200000	0.030779
121.250000	0.030798
121.300000	0.030845
121.350000	0.030675
121.400000	0.030399
121.450000	0.030422
121.500000	0.030566
121.550000	0.030648
121.600000	0.030655
121.650000	0.030606
121.700000	0.030637
121.750000	0.030679
121.800000	0.030758
121.850000	0.030801
121.900000	0.030833
121.950000	0.030772
122.000000	0.030464
122.050000	0.030352
122.100000	0.030424
122.150000	0.030557
122.200000	0.030591
122.250000	0.030566
122.300000	0.030538
122.350000	0.030601
122.400000	0.030672
122.450000	0.030737
122.500000	0.030789
122.550000	0.030774
122.600000	0.030544
122.650000	0.030343
122.700000	0.030394
122.750000	0.030512
122.800000	0.030587
122.850000	0.030580
122.900000	0.030520
122.950000	0.030550
123.000000	0.030625
123.050000	0.030686
123.100000	0.030765
123.150000	0.030813
123.200000	0.030664
123.250000	0.030397
123.300000	0.030398
123.350000	0.030514
123.400000	0.030595
123.450000	0.030599
123.500000	0.030541
123.550000	0.030539
123.600000	0.030609
123.650000	0.030657
123.700000	0.030718
123.750000	0.030793
123.800000	0.030702
123.850000	0.030436
123.900000	0.030372
123.950000	0.030478
124.000000	0.030582
124.050000	0.030608
124.100000	0.030583
124.150000	0.030580
124.200000	0.030660
124.250000	0.030725
124.300000	0.030780
124.350000	0.030853
124.400000	0.030834
124.450000	0.030583
124.500000	0.030453
124.550000	0.030570
124.600000	0.030720
124.650000	0.030777
124.700000	0.030737
124.750000	0.030716
124.800000	0.030764
124.850000	0.030829
124.900000	0.030870
124.950000	0.030929
125.000000	0.030941
125.050000	0.030750
125.100000	0.030507
125.150000	0.030566
125.200000	0.030702
125.250000	0.030790
125.300000	0.030800
125.350000	0.030784
125.400000	0.030840
125.450000	0.030903
125.500000	0.030963
125.550000	0.030998
125.600000	0.031037
125.650000	0.030884
125.700000	0.030609
125.750000	0.030572
125.800000	0.030666
125.850000	0.030745
125.900000	0.030766
125.950000	0.030722
126.000000	0.030722
126.050000	0.030783
126.100000	0.030845
126.150000	0.030887
126.200000	0.030960
126.250000	0.030875
126.300000	0.030558
126.350000	0.030499
126.400000	0.030593
126.450000	0.030673
126.500000	0.030715
126.550000	0.030668
126.600000	0.030672
126.650000	0.030713
126.700000	0.030752
126.750000	0.030793
126.800000	0.030827
126.850000	0.030830
126.900000	0.030591
126.950000	0.030388
127.000000	0.030441
127.050000	0.030555
127.100000	0.030618
127.150000	0.030621
127.200000	0.030574
127.250000	0.030638
127.300000	0.030720
127.350000	0.030774
127.400000	0.030833
127.450000	0.030896
127.500000	0.030865
127.550000	0.030593
127.600000	0.030448
127.650000	0.030532
127.700000	0.030661
127.750000	0.030718
127.800000	0.030715
127.850000	0.030732
127.900000	0.030793
127.950000	0.030859
128.000000	0.030933
128.050000	0.030984
128.100000	0.031024
128.150000	0.030985
128.200000	0.030726
128.250000	0.030628
128.300000	0.030724
128.350000	0.030840
128.400000	0.030906
128.450000	0.030868
128.500000	0.030849
128.550000	0.030905
128.600000	0.030969
128.650000	0.031041
128.700000	0.031073
128.750000	0.031121
128.800000	0.031046
128.850000	0.030788
128.900000	0.030745
128.950000	0.030862
129.000000	0.030991
129.050000	0.031027
129.100000	0.030989
129.150000	0.031013
129.200000	0.031058
129.250000	0.031117
129.300000	0.031157
129.350000	0.031185
129.400000	0.031203
129.450000	0.031008
129.500000	0.030765
129.550000	0.030808
129.600000	0.030943
129.650000	0.031029
129.700000	0.031013
129.750000	0.031008
129.800000	0.031022
129.850000	0.031064
129.900000	0.031124
129.950000	0.031159
130.000000	0.031175
130.050000	0.031057
130.100000	0.030760
130.150000	0.030685
130.200000	0.030792
130.250000	0.030867
130.300000	0.030886
130.350000	0.030871
130.400000	0.030876
130.450000	0.030956
130.500000	0.031020
130.550000	0.031087
130.600000	0.031151
130.650000	0.031149
130.700000	0.030883
130.750000	0.030714
130.800000	0.030774
130.850000	0.030887
130.900000	0.030950
130.950000	0.030921
131.000000	0.030896
131.050000	0.030932
131.100000	0.031025
131.150000	0.031060
131.200000	0.031114
131.250000	0.031148
131.300000	0.031034
131.350000	0.030770
131.400000	0.030753
131.450000	0.030853
131.500000	0.030969
131.550000	0.031001
131.600000	0.030975
131.650000	0.030997
131.700000	0.031070
131.750000	0.031141
131.800000	0.031185
131.850000	0.031246
131.900000	0.031218
131.950000	0.030985
132.000000	0.030840
132.050000	0.030913
132.100000	0.031058
132.150000	0.031159
132.200000	0.031131
132.250000	0.031089
132.300000	0.031124
132.350000	0.031187
132.400000	0.031215
132.450000	0.031251
132.500000	0.031281
132.550000	0.031187
132.600000	0.030938
132.650000	0.030891
132.700000	0.031009
132.750000	0.031139
132.800000	0.031173
132.850000	0.031127
132.900000	0.031130
132.950000	0.031203
133.000000	0.031265
133.050000	0.031296
133.100000	0.031322
133.150000	0.031323
133.200000	0.031068
133.250000	0.030887
133.300000	0.030972
133.350000	0.031087
133.400000	0.031154
133.450000	0.031118
133.500000	0.031101
133.550000	0.031143
133.600000	0.031205
133.650000	0.031239
133.700000	0.031281
133.750000	0.031284
133.800000	0.031054
133.850000	0.030837
133.900000	0.030881
133.950000	0.030985
134.000000	0.031048
134.050000	0.031032
134.100000	0.031025
134.150000	0.031042
134.200000	0.031108
134.250000	0.031156
134.300000	0.031187
134.350000	0.031218
134.400000	0.030999
134.450000	0.030753
134.500000	0.030765
134.550000	0.030843
134.600000	0.030936
134.650000	0.030944
134.700000	0.030901
134.750000	0.030939
134.800000	0.031004
134.850000	0.031041
134.900000	0.031092
134.950000	0.031124
135.000000	0.031073
135.050000	0.030816
135.100000	0.030732
135.150000	0.030821
135.200000	0.030934
135.250000	0.030984
135.300000	0.030985
135.350000	0.030994
135.400000	0.031056
135.450000	0.031113
135.500000	0.031143
135.550000	0.031189
135.600000	0.031197
135.650000	0.031038
135.700000	0.030788
135.750000	0.030789
135.800000	0.030897
135.850000	0.031003
135.900000	0.031022
135.950000	0.031004
136.000000	0.031054
136.050000	0.031144
136.100000	0.031217
136.150000	0.031288
136.200000	0.031318
136.250000	0.031361
136.300000	0.031181
136.350000	0.030953
136.400000	0.031002
136.450000	0.031120
136.500000	0.031192
136.550000	0.031210
136.600000	0.031186
136.650000	0.031207
136.700000	0.031315
136.750000	0.031345
136.800000	0.031407
136.850000	0.031411
136.900000	0.031419
136.950000	0.031190
137.000000	0.031046
137.050000	0.031122
137.100000	0.031272
137.150000	0.031356
137.200000	0.031340
137.250000	0.031317
137.300000	0.031372
137.350000	0.031445
137.400000	0.031529
137.450000	0.031580
137.500000	0.031635
137.550000	0.031575
137.600000	0.031284
137.650000	0.031217
137.700000	0.031325
137.750000	0.031420
137.800000	0.031486
137.850000	0.031444
137.900000	0.031426
137.950000	0.031484
138.000000	0.031544
138.050000	0.031572
138.100000	0.031599
138.150000	0.031608
138.200000	0.031368
138.250000	0.031147
138.300000	0.031209
138.350000	0.031330
138.400000	0.031411
138.450000	0.031414
138.500000	0.031374
138.550000	0.031406
138.600000	0.031474
138.650000	0.031526
138.700000	0.031578
138.750000	0.031600
138.800000	0.031441
138.850000	0.031147
138.900000	0.031148
138.950000	0.031243
139.000000	0.031321
139.050000	0.031345
139.100000	0.031303
139.150000	0.031311
139.200000	0.031385
139.250000	0.031444
139.300000	0.031468
139.350000	0.031498
139.400000	0.031464
139.450000	0.031184
139.500000	0.031068
139.550000	0.031135
139.600000	0.031246
139.650000	0.031304
139.700000	0.031273
139.750000	0.031249
139.800000	0.031312
139.850000	0.031380
139.900000	0.031447
139.950000	0.031485
140.000000	0.031502
140.050000	0.031281
140.100000	0.031085
140.150000	0.031143
140.200000	0.031259
140.250000	0.031342
140.300000	0.031336
140.350000	0.031305
140.400000	0.031358
140.450000	0.031412
140.500000	0.031446
140.550000	0.031518
140.600000	0.031571
140.650000	0.031475
140.700000	0.031218
140.750000	0.031175
140.800000	0.031303
140.850000	0.031401
140.900000	0.031434
140.950000	0.031402
141.000000	0.031395
141.050000	0.031485
141.100000	0.031535
141.150000	0.031599
141.200000	0.031663
141.250000	0.031657
141.300000	0.031415
141.350000	0.031243
141.400000	0.031326
141.450000	0.031475
141.500000	0.031549
141.550000	0.031531
141.600000	0.031518
141.650000	0.031562
141.700000	0.031637
141.750000	0.031669
141.800000	0.031726
141.850000	0.031751
141.900000	0.031594
141.950000	0.031342
142.000000	0.031360
142.050000	0.031496
142.100000	0.031587
142.150000	0.031593
142.200000	0.031561
142.250000	0.031591
142.300000	0.031681
142.350000	0.031729
142.400000	0.031758
142.450000	0.031795
142.500000	0.031651
142.550000	0.031355
142.600000	0.031345
142.650000	0.031445
142.700000	0.031527
142.750000	0.031547
142.800000	0.031486
142.850000	0.031489
142.900000	0.031556
142.950000	0.031616
143.000000	0.031664
143.050000	0.031689
143.100000	0.031537
143.150000	0.031239
143.200000	0.031220
143.250000	0.031327
143.300000	0.031406
143.350000	0.031421
143.400000	0.031366
143.450000	0.031403
143.500000	0.031470
143.550000	0.031530
143.600000	0.031553
143.650000	0.031595
143.700000	0.031525
143.750000	0.031234
143.800000	0.031109
143.850000	0.031182
143.900000	0.031284
143.950000	0.031336
144.000000	0.031297
144.050000	0.031305
144.100000	0.031356
144.150000	0.031412
144.200000	0.031450
144.250000	0.031482
144.300000	0.031507
144.350000	0.031373
144.400000	0.031087
144.450000	0.031097
144.500000	0.031213
144.550000	0.031298
144.600000	0.031310
144.650000	0.031259
144.700000	0.031266
144.750000	0.031344
144.800000	0.031406
144.850000	0.031453
144.900000	0.031495
144.950000	0.031527
145.000000	0.031375
145.050000	0.031132
145.100000	0.031160
145.150000	0.031286
145.200000	0.031421
145.250000	0.031440
145.300000	0.031397
145.350000	0.031434
145.400000	0.031508
145.450000	0.031575
145.500000	0.031634
145.550000	0.031679
145.600000	0.031712
145.650000	0.031586
145.700000	0.031328
145.750000	0.031328
145.800000	0.031464
145.850000	0.031563
145.900000	0.031563
145.950000	0.031529
146.000000	0.031563
146.050000	0.031640
146.100000	0.031715
146.150000	0.031786
146.200000	0.031815
146.250000	0.031867
146.300000	0.031713
146.350000	0.031442
146.400000	0.031476
146.450000	0.031622
146.500000	0.031707
146.550000	0.031717
146.600000	0.031652
146.650000	0.031670
146.700000	0.031734
146.750000	0.031787
146.800000	0.031826
146.850000	0.031845
146.900000	0.031855
146.950000	0.031577
147.000000	0.031384
147.050000	0.031457
147.100000	0.031592
147.150000	0.031641
147.200000	0.031620
147.250000	0.031598
147.300000	0.031645
147.350000	0.031711
147.400000	0.031762
147.450000	0.031787
147.500000	0.031818
147.550000	0.031717
147.600000	0.031398
147.650000	0.031359
147.700000	0.031482
147.750000	0.031565
147.800000	0.031598
147.850000	0.031549
147.900000	0.031523
147.950000	0.031592
148.000000	0.031664
148.050000	0.031700
148.100000	0.031764
148.150000	0.031791
148.200000	0.031574
148.250000	0.031339
148.300000	0.031387
148.350000	0.031537
148.400000	0.031632
148.450000	0.031656
148.500000	0.031662
148.550000	0.031133
148.600000	0.025391
148.650000	0.017148
148.700000	0.014364
148.750000	0.012038
148.800000	0.010963
148.850000	0.009277
148.900000	0.010442
148.950000	0.017332
149.000000	2.253612
149.050000	2.074989
149.100000	0.299914
149.150000	0.081466
149.200000	0.030589
149.250000	0.007247
149.300000	0.002035
149.350000	0.000769
149.400000	0.000623
149.450000	0.000606
149.500000	0.000603
149.550000	0.000611
149.600000	0.000615
149.650000	0.000661
149.700000	0.000683
149.750000	0.000592
149.800000	0.000583
149.850000	0.000575
149.900000	0.000572
149.950000	0.000568
150.000000	0.000570
150.050000	0.000557
150.100000	0.000548
150.150000	0.000525
150.200000	0.000530
150.250000	0.000531
150.300000	0.000528
150.350000	0.000547
150.400000	0.000542
150.450000	0.000532
150.500000	0.000524
150.550000	0.000534
150.600000	0.000535
150.650000	0.000541
150.700000	0.000533
150.750000	0.000537
150.800000	0.000538
150.850000	0.000549
150.900000	0.000546
150.950000	0.000543
151.000000	0.000524
151.050000	0.000533
151.100000	0.000543
151.150000	0.000574
151.200000	0.000579
151.250000	0.000573
151.300000	0.000582
151.350000	0.000574
151.400000	0.000586
151.450000	0.000589
151.500000	0.000589
151.550000	0.000591
151.600000	0.000601
151.650000	0.000606
151.700000	0.000596
151.750000	0.000592
151.800000	0.000590
151.850000	0.000578
151.900000	0.000583
151.950000	0.000597
152.000000	0.000599
152.050000	0.000588
152.100000	0.000588
152.150000	0.000575
152.200000	0.000571
152.250000	0.000577
152.300000	0.000591
152.350000	0.000595
152.400000	0.000592
152.450000	0.000600
152.500000	0.000606
152.550000	0.000597
152.600000	0.000607
152.650000	0.000609
152.700000	0.000594
