0.000000	0.020906
0.050000	0.020835
0.100000	0.020825
0.150000	0.020804
0.200000	0.020786
0.250000	0.020813
0.300000	0.020865
0.350000	0.020968
0.400000	0.020984
0.450000	0.021208
0.500000	0.022022
0.550000	0.023542
0.600000	0.025193
0.650000	0.026596
0.700000	0.027641
0.750000	0.029021
0.800000	0.032729
0.850000	0.038413
0.900000	0.044841
0.950000	0.049415
1.000000	0.053196
1.050000	0.055567
1.100000	0.057978
1.150000	0.061236
1.200000	0.064698
1.250000	0.065522
1.300000	0.066023
1.350000	0.068485
1.400000	0.071389
1.450000	0.073232
1.500000	0.075126
1.550000	0.075885
1.600000	0.077488
1.650000	0.080882
1.700000	0.085591
1.750000	0.088500
1.800000	0.090063
1.850000	0.097506
1.900000	0.102140
1.950000	0.070025
2.000000	0.052405
2.050000	0.032441
2.100000	0.018830
2.150000	0.010074
2.200000	0.008677
2.250000	0.008677
2.300000	0.008228
2.350000	0.007866
2.400000	0.007747
2.450000	0.007635
2.500000	0.007695
2.550000	0.007898
2.600000	0.008239
2.650000	0.008864
2.700000	0.002475
2.750000	0.003706
2.800000	0.005083
2.850000	0.006889
2.900000	0.014025
2.950000	0.026279
3.000000	0.035512
3.050000	0.052648
3.100000	0.097933
3.150000	0.084161
3.200000	0.076527
3.250000	0.089965
3.300000	0.106906
3.350000	0.109170
3.400000	0.110418
3.450000	0.116097
3.500000	0.114425
3.550000	0.103782
3.600000	0.099795
3.650000	0.100055
3.700000	0.099941
3.750000	0.099730
3.800000	0.103632
3.850000	0.110531
3.900000	0.121232
3.950000	0.132001
4.000000	0.137283
4.050000	0.139780
4.100000	0.140763
4.150000	0.140119
4.200000	0.140678
4.250000	0.144404
4.300000	0.150242
4.350000	0.157070
4.400000	0.164508
4.450000	0.167461
4.500000	0.168123
4.550000	0.167331
4.600000	0.165213
4.650000	0.163353
4.700000	0.163290
4.750000	0.164700
4.800000	0.165264
4.850000	0.165518
4.900000	0.166101
4.950000	0.165934
5.000000	0.165968
5.050000	0.166098
5.100000	0.167336
5.150000	0.168964
5.200000	0.169444
5.250000	0.169735
5.300000	0.171126
5.350000	0.172963
5.400000	0.173908
5.450000	0.173921
5.500000	0.174376
5.550000	0.175129
5.600000	0.175749
5.650000	0.176170
5.700000	0.176333
5.750000	0.176557
5.800000	0.176953
5.850000	0.177483
5.900000	0.178026
5.950000	0.178495
6.000000	0.178034
6.050000	0.177463
6.100000	0.177619
6.150000	0.178040
6.200000	0.178425
6.250000	0.178463
6.300000	0.178456
6.350000	0.178427
6.400000	0.178760
6.450000	0.179116
6.500000	0.179190
6.550000	0.179040
6.600000	0.178234
6.650000	0.178001
6.700000	0.178203
6.750000	0.178658
6.800000	0.178947
6.850000	0.178814
6.900000	0.178782
6.950000	0.178912
7.000000	0.179247
7.050000	0.179527
7.100000	0.179772
7.150000	0.179369
7.200000	0.178973
7.250000	0.178814
7.300000	0.178979
7.350000	0.179149
7.400000	0.179238
7.450000	0.179261
7.500000	0.179385
7.550000	0.179521
7.600000	0.179764
7.650000	0.180191
7.700000	0.180143
7.750000	0.179744
7.800000	0.179696
7.850000	0.179976
7.900000	0.180109
7.950000	0.180106
8.000000	0.180160
8.050000	0.180460
8.100000	0.180485
8.150000	0.180639
8.200000	0.180379
8.250000	0.179451
8.300000	0.179240
8.350000	0.179428
8.400000	0.179877
8.450000	0.180107
8.500000	0.180076
8.550000	0.180083
8.600000	0.180268
8.650000	0.180456
8.700000	0.180626
8.750000	0.180204
8.800000	0.179010
8.850000	0.178725
8.900000	0.178964
8.950000	0.179342
9.000000	0.179438
9.050000	0.179279
9.100000	0.179160
9.150000	0.179333
9.200000	0.179459
9.250000	0.179478
9.300000	0.179559
9.350000	0.178743
9.400000	0.177701
9.450000	0.177683
9.500000	0.177986
9.550000	0.178355
9.600000	0.178476
9.650000	0.178357
9.700000	0.178375
9.750000	0.178533
9.800000	0.178649
9.850000	0.178867
9.900000	0.178991
9.950000	0.179059
10.000000	0.178380
10.050000	0.177193
10.100000	0.177084
10.150000	0.177469
10.200000	0.177863
10.250000	0.177924
10.300000	0.177736
10.350000	0.177803
10.400000	0.177935
10.450000	0.178039
10.500000	0.178179
10.550000	0.178248
10.600000	0.178238
10.650000	0.178238
10.700000	0.177206
10.750000	0.176375
10.800000	0.176424
10.850000	0.176730
10.900000	0.177024
10.950000	0.176955
11.000000	0.176820
11.050000	0.176848
11.100000	0.177050
11.150000	0.177241
11.200000	0.177367
11.250000	0.177491
11.300000	0.177616
11.350000	0.177766
11.400000	0.177061
11.450000	0.176213
11.500000	0.176298
11.550000	0.176761
11.600000	0.177166
11.650000	0.177168
11.700000	0.177020
11.750000	0.177106
11.800000	0.177310
11.850000	0.177478
11.900000	0.177677
11.950000	0.177817
12.000000	0.177910
12.050000	0.177910
12.100000	0.176971
12.150000	0.176476
12.200000	0.176773
12.250000	0.177235
12.300000	0.177503
12.350000	0.177431
12.400000	0.177359
12.450000	0.177539
12.500000	0.177805
12.550000	0.177991
12.600000	0.178148
12.650000	0.178251
12.700000	0.178332
12.750000	0.177705
12.800000	0.176894
12.850000	0.177016
12.900000	0.177514
12.950000	0.177902
13.000000	0.177964
13.050000	0.177918
13.100000	0.177928
13.150000	0.178049
13.200000	0.178307
13.250000	0.178509
13.300000	0.178636
13.350000	0.178835
13.400000	0.178555
13.450000	0.177588
13.500000	0.177327
13.550000	0.177660
13.600000	0.178101
13.650000	0.178238
13.700000	0.178088
13.750000	0.178082
13.800000	0.178254
13.850000	0.178387
13.900000	0.178573
13.950000	0.178611
14.000000	0.178854
14.050000	0.178540
14.100000	0.177509
14.150000	0.177416
14.200000	0.177857
14.250000	0.178271
14.300000	0.178366
14.350000	0.178258
14.400000	0.178266
14.450000	0.178471
14.500000	0.178655
14.550000	0.178836
14.600000	0.178997
14.650000	0.179153
14.700000	0.178526
14.750000	0.177776
14.800000	0.177843
14.850000	0.178280
14.900000	0.178592
14.950000	0.178484
15.000000	0.178345
15.050000	0.178382
15.100000	0.178583
15.150000	0.178687
15.200000	0.178850
15.250000	0.179026
15.300000	0.178755
15.350000	0.177819
15.400000	0.177679
15.450000	0.178044
15.500000	0.178392
15.550000	0.178403
15.600000	0.178249
15.650000	0.178269
15.700000	0.178375
15.750000	0.178437
15.800000	0.178563
15.850000	0.178714
15.900000	0.178423
15.950000	0.177345
16.000000	0.177027
16.050000	0.177306
16.100000	0.177659
16.150000	0.177745
16.200000	0.177613
16.250000	0.177533
16.300000	0.177619
16.350000	0.177668
16.400000	0.177802
16.450000	0.177958
16.500000	0.177605
16.550000	0.176536
16.600000	0.176242
16.650000	0.176547
16.700000	0.176886
16.750000	0.176957
16.800000	0.176794
16.850000	0.176706
16.900000	0.176929
16.950000	0.177080
17.000000	0.177157
17.050000	0.177359
17.100000	0.177198
17.150000	0.176141
17.200000	0.175818
17.250000	0.176173
17.300000	0.176531
17.350000	0.176601
17.400000	0.176496
17.450000	0.176498
17.500000	0.176715
17.550000	0.176853
17.600000	0.177068
17.650000	0.177236
17.700000	0.177430
17.750000	0.176779
17.800000	0.175926
17.850000	0.176101
17.900000	0.176511
17.950000	0.176745
18.000000	0.176683
18.050000	0.176571
18.100000	0.176649
18.150000	0.176836
18.200000	0.176998
18.250000	0.177062
18.300000	0.177070
18.350000	0.177204
18.400000	0.176547
18.450000	0.175656
18.500000	0.175694
18.550000	0.176091
18.600000	0.176424
18.650000	0.176518
18.700000	0.176394
18.750000	0.176498
18.800000	0.176701
18.850000	0.176861
18.900000	0.177036
18.950000	0.177108
19.000000	0.177288
19.050000	0.176996
19.100000	0.175926
19.150000	0.175721
19.200000	0.176006
19.250000	0.176311
19.300000	0.176407
19.350000	0.176319
19.400000	0.176393
19.450000	0.176608
19.500000	0.176870
19.550000	0.177019
19.600000	0.177156
19.650000	0.177321
19.700000	0.177380
19.750000	0.176502
19.800000	0.175886
19.850000	0.176125
19.900000	0.176484
19.950000	0.176775
20.000000	0.176770
20.050000	0.176660
20.100000	0.176705
20.150000	0.176847
20.200000	0.177029
20.250000	0.177138
20.300000	0.177213
20.350000	0.177322
20.400000	0.177000
20.450000	0.176011
20.500000	0.175826
20.550000	0.176102
20.600000	0.176486
20.650000	0.176710
20.700000	0.176600
20.750000	0.176571
20.800000	0.176727
20.850000	0.176853
20.900000	0.177060
20.950000	0.177219
21.000000	0.177296
21.050000	0.177450
21.100000	0.177059
21.150000	0.176054
21.200000	0.175891
21.250000	0.176174
21.300000	0.176487
21.350000	0.176513
21.400000	0.176401
21.450000	0.176459
21.500000	0.176669
21.550000	0.176793
21.600000	0.176983
21.650000	0.177086
21.700000	0.177142
21.750000	0.177291
21.800000	0.176602
21.850000	0.175878
21.900000	0.175947
21.950000	0.176414
22.000000	0.176744
22.050000	0.176817
22.100000	0.176737
22.150000	0.176720
22.200000	0.176876
22.250000	0.177054
22.300000	0.177237
22.350000	0.177327
22.400000	0.177556
22.450000	0.177053
22.500000	0.176126
22.550000	0.176082
22.600000	0.176472
22.650000	0.176836
22.700000	0.176878
22.750000	0.176785
22.800000	0.176791
22.850000	0.176974
22.900000	0.177086
22.950000	0.177236
23.000000	0.177505
23.050000	0.177345
23.100000	0.176378
23.150000	0.176313
23.200000	0.176680
23.250000	0.176929
23.300000	0.177074
23.350000	0.176940
23.400000	0.177028
23.450000	0.177177
23.500000	0.177282
23.550000	0.177432
23.600000	0.177598
23.650000	0.177059
23.700000	0.176164
23.750000	0.176235
23.800000	0.176599
23.850000	0.176987
23.900000	0.177077
23.950000	0.176943
24.000000	0.176982
24.050000	0.177227
24.100000	0.177407
24.150000	0.177600
24.200000	0.177618
24.250000	0.176854
24.300000	0.176288
24.350000	0.176461
24.400000	0.176837
24.450000	0.177063
24.500000	0.176979
24.550000	0.176830
24.600000	0.176993
24.650000	0.177183
24.700000	0.177345
24.750000	0.177509
24.800000	0.177176
24.850000	0.176236
24.900000	0.176015
24.950000	0.176357
25.000000	0.176753
25.050000	0.176834
25.100000	0.176741
25.150000	0.176741
25.200000	0.176902
25.250000	0.177054
25.300000	0.177174
25.350000	0.177187
25.400000	0.176297
25.450000	0.175510
25.500000	0.175610
25.550000	0.175871
25.600000	0.176108
25.650000	0.176126
25.700000	0.175899
25.750000	0.175998
25.800000	0.176214
25.850000	0.176368
25.900000	0.176467
25.950000	0.176601
26.000000	0.175815
26.050000	0.175033
26.100000	0.175194
26.150000	0.175543
26.200000	0.175791
26.250000	0.175789
26.300000	0.175709
26.350000	0.175821
26.400000	0.176031
26.450000	0.176155
26.500000	0.176276
26.550000	0.176414
26.600000	0.176517
26.650000	0.175801
26.700000	0.174975
26.750000	0.175084
26.800000	0.175315
26.850000	0.175630
26.900000	0.175663
26.950000	0.175540
27.000000	0.175592
27.050000	0.175726
27.100000	0.175805
27.150000	0.175896
27.200000	0.176077
27.250000	0.176160
27.300000	0.176267
27.350000	0.175624
27.400000	0.174832
27.450000	0.174891
27.500000	0.175202
27.550000	0.175433
27.600000	0.175378
27.650000	0.175268
27.700000	0.175381
27.750000	0.175582
27.800000	0.175836
27.850000	0.175988
27.900000	0.176158
27.950000	0.176252
28.000000	0.176439
28.050000	0.176251
28.100000	0.175235
28.150000	0.174881
28.200000	0.175118
28.250000	0.175398
28.300000	0.175588
28.350000	0.175529
28.400000	0.175496
28.450000	0.175621
28.500000	0.175827
28.550000	0.176056
28.600000	0.176220
28.650000	0.176312
28.700000	0.176360
28.750000	0.176437
28.800000	0.175945
28.850000	0.175169
28.900000	0.175164
28.950000	0.175495
29.000000	0.175726
29.050000	0.175714
29.100000	0.175576
29.150000	0.175641
29.200000	0.175833
29.250000	0.175999
29.300000	0.176156
29.350000	0.176293
29.400000	0.176319
29.450000	0.176400
29.500000	0.176161
29.550000	0.175287
29.600000	0.175125
29.650000	0.175527
29.700000	0.175814
29.750000	0.175942
29.800000	0.175867
29.850000	0.175892
29.900000	0.176081
29.950000	0.176181
30.000000	0.176399
30.050000	0.176547
30.100000	0.176605
30.150000	0.176754
30.200000	0.176574
30.250000	0.175554
30.300000	0.175327
30.350000	0.175659
30.400000	0.175888
30.450000	0.176020
30.500000	0.176017
30.550000	0.176013
30.600000	0.176111
30.650000	0.176342
30.700000	0.176474
30.750000	0.176518
30.800000	0.176556
30.850000	0.176704
30.900000	0.176175
30.950000	0.175285
31.000000	0.175186
31.050000	0.175364
31.100000	0.175608
31.150000	0.175602
31.200000	0.175381
31.250000	0.175433
31.300000	0.175647
31.350000	0.175982
31.400000	0.176187
31.450000	0.176279
31.500000	0.176256
31.550000	0.176242
31.600000	0.175406
31.650000	0.174600
31.700000	0.174670
31.750000	0.174970
31.800000	0.175097
31.850000	0.174939
31.900000	0.174695
31.950000	0.174748
32.000000	0.174945
32.050000	0.175158
32.100000	0.175330
32.150000	0.175531
32.200000	0.175437
32.250000	0.174488
32.300000	0.174256
32.350000	0.174452
32.400000	0.174803
32.450000	0.175010
32.500000	0.175010
32.550000	0.174963
32.600000	0.175052
32.650000	0.175214
32.700000	0.175375
32.750000	0.175572
32.800000	0.175583
32.850000	0.174744
32.900000	0.174313
32.950000	0.174597
33.000000	0.174954
33.050000	0.175179
33.100000	0.175125
33.150000	0.175101
33.200000	0.175140
33.250000	0.175366
33.300000	0.175634
33.350000	0.175917
33.400000	0.176040
33.450000	0.175353
33.500000	0.174775
33.550000	0.174961
33.600000	0.175345
33.650000	0.175623
33.700000	0.175609
33.750000	0.175514
33.800000	0.175551
33.850000	0.175705
33.900000	0.175806
33.950000	0.175948
34.000000	0.176157
34.050000	0.175993
34.100000	0.174925
34.150000	0.174616
34.200000	0.174938
34.250000	0.175334
34.300000	0.175540
34.350000	0.175459
34.400000	0.175434
34.450000	0.175634
34.500000	0.175777
34.550000	0.175943
34.600000	0.176051
34.650000	0.176168
34.700000	0.175781
34.750000	0.174871
34.800000	0.174754
34.850000	0.175133
34.900000	0.175404
34.950000	0.175395
35.000000	0.175247
35.050000	0.175247
35.100000	0.175348
35.150000	0.175475
35.200000	0.175631
35.250000	0.175721
35.300000	0.175822
35.350000	0.175076
35.400000	0.174418
35.450000	0.174597
35.500000	0.174967
35.550000	0.175202
35.600000	0.175198
35.650000	0.175061
35.700000	0.175134
35.750000	0.175265
35.800000	0.175369
35.850000	0.175475
35.900000	0.175625
35.950000	0.175714
36.000000	0.174875
36.050000	0.174291
36.100000	0.174468
36.150000	0.174840
36.200000	0.175022
36.250000	0.174931
36.300000	0.174902
36.350000	0.174999
36.400000	0.175183
36.450000	0.175308
36.500000	0.175473
36.550000	0.175605
36.600000	0.175816
36.650000	0.175272
36.700000	0.174528
36.750000	0.174653
36.800000	0.174984
36.850000	0.175210
36.900000	0.175139
36.950000	0.175018
37.000000	0.175095
37.050000	0.175214
37.100000	0.175416
37.150000	0.175614
37.200000	0.175698
37.250000	0.175828
37.300000	0.175559
37.350000	0.174684
37.400000	0.174551
37.450000	0.174934
37.500000	0.175324
37.550000	0.175404
37.600000	0.175295
37.650000	0.175307
37.700000	0.175507
37.750000	0.175652
37.800000	0.175826
37.850000	0.175970
37.900000	0.176082
37.950000	0.176127
38.000000	0.175293
38.050000	0.174728
38.100000	0.174907
38.150000	0.175286
38.200000	0.175503
38.250000	0.175385
38.300000	0.175300
38.350000	0.175429
38.400000	0.175539
38.450000	0.175645
38.500000	0.175809
38.550000	0.175961
38.600000	0.175947
38.650000	0.175097
38.700000	0.174635
38.750000	0.174869
38.800000	0.175192
38.850000	0.175387
38.900000	0.175280
38.950000	0.175166
39.000000	0.175271
39.050000	0.175431
39.100000	0.175551
39.150000	0.175689
39.200000	0.175931
39.250000	0.175582
39.300000	0.174625
39.350000	0.174486
39.400000	0.174782
39.450000	0.175042
39.500000	0.175083
39.550000	0.174972
39.600000	0.174917
39.650000	0.175067
39.700000	0.175228
39.750000	0.175393
39.800000	0.175519
39.850000	0.175573
39.900000	0.174843
39.950000	0.174255
40.000000	0.174345
40.050000	0.174672
40.100000	0.174909
40.150000	0.174870
40.200000	0.174782
40.250000	0.174858
40.300000	0.175062
40.350000	0.175245
40.400000	0.175342
40.450000	0.175475
40.500000	0.175437
40.550000	0.174624
40.600000	0.174167
40.650000	0.174447
40.700000	0.174699
40.750000	0.174939
40.800000	0.174914
40.850000	0.174886
40.900000	0.175041
40.950000	0.175290
41.000000	0.175448
41.050000	0.175609
41.100000	0.175724
41.150000	0.175724
41.200000	0.174841
41.250000	0.174381
41.300000	0.174652
41.350000	0.174980
41.400000	0.175183
41.450000	0.175177
41.500000	0.175105
41.550000	0.175297
41.600000	0.175484
41.650000	0.175612
41.700000	0.175730
41.750000	0.175838
41.800000	0.175930
41.850000	0.175297
41.900000	0.174546
41.950000	0.174663
42.000000	0.174931
42.050000	0.175218
42.100000	0.175219
42.150000	0.175064
42.200000	0.175138
42.250000	0.175350
42.300000	0.175516
42.350000	0.175695
42.400000	0.175778
42.450000	0.175934
42.500000	0.175849
42.550000	0.174997
42.600000	0.174750
42.650000	0.175136
42.700000	0.175510
42.750000	0.175631
42.800000	0.175545
42.850000	0.175503
42.900000	0.175646
42.950000	0.175807
43.000000	0.175960
43.050000	0.176036
43.100000	0.176078
43.150000	0.176156
43.200000	0.175661
43.250000	0.174857
43.300000	0.174821
43.350000	0.175139
43.400000	0.175396
43.450000	0.175457
43.500000	0.175323
43.550000	0.175332
43.600000	0.175485
43.650000	0.175679
43.700000	0.175788
43.750000	0.175862
43.800000	0.175868
43.850000	0.175906
43.900000	0.175146
43.950000	0.174521
44.000000	0.174750
44.050000	0.175052
44.100000	0.175310
44.150000	0.175370
44.200000	0.175342
44.250000	0.175442
44.300000	0.175628
44.350000	0.175812
44.400000	0.175963
44.450000	0.176062
44.500000	0.176203
44.550000	0.176126
44.600000	0.175234
44.650000	0.174913
44.700000	0.175194
44.750000	0.175521
44.800000	0.175710
44.850000	0.175646
44.900000	0.175596
44.950000	0.175773
45.000000	0.175955
45.050000	0.176121
45.100000	0.176222
45.150000	0.176352
45.200000	0.176541
45.250000	0.176230
45.300000	0.175372
45.350000	0.175269
45.400000	0.175587
45.450000	0.175897
45.500000	0.176042
45.550000	0.175983
45.600000	0.176055
45.650000	0.176257
45.700000	0.176448
45.750000	0.176663
45.800000	0.176803
45.850000	0.176886
45.900000	0.176988
45.950000	0.176219
46.000000	0.175593
46.050000	0.175784
46.100000	0.176103
46.150000	0.176389
46.200000	0.176364
46.250000	0.176260
46.300000	0.176434
46.350000	0.176646
46.400000	0.176805
46.450000	0.176956
46.500000	0.177078
46.550000	0.177048
46.600000	0.176383
46.650000	0.175777
46.700000	0.175940
46.750000	0.176323
46.800000	0.176556
46.850000	0.176489
46.900000	0.176358
46.950000	0.176432
47.000000	0.176649
47.050000	0.176785
47.100000	0.176917
47.150000	0.176997
47.200000	0.176898
47.250000	0.176001
47.300000	0.175624
47.350000	0.175847
47.400000	0.176112
47.450000	0.176331
47.500000	0.176235
47.550000	0.176116
47.600000	0.176226
47.650000	0.176364
47.700000	0.176527
47.750000	0.176600
47.800000	0.176745
47.850000	0.176407
47.900000	0.175525
47.950000	0.175368
48.000000	0.175641
48.050000	0.175900
48.100000	0.176033
48.150000	0.175891
48.200000	0.175843
48.250000	0.175949
48.300000	0.176145
48.350000	0.176232
48.400000	0.176362
48.450000	0.176544
48.500000	0.176228
48.550000	0.175350
48.600000	0.175220
48.650000	0.175454
48.700000	0.175713
48.750000	0.175946
48.800000	0.175901
48.850000	0.175900
48.900000	0.176054
48.950000	0.176236
49.000000	0.176360
49.050000	0.176446
49.100000	0.176632
49.150000	0.176675
49.200000	0.175775
49.250000	0.175268
49.300000	0.175521
49.350000	0.175782
49.400000	0.176001
49.450000	0.175937
49.500000	0.175920
49.550000	0.176084
49.600000	0.176278
49.650000	0.176403
49.700000	0.176550
49.750000	0.176610
49.800000	0.176615
49.850000	0.175989
49.900000	0.175291
49.950000	0.175361
50.000000	0.175698
50.050000	0.176021
50.100000	0.175989
50.150000	0.175923
50.200000	0.175967
50.250000	0.176146
50.300000	0.176284
50.350000	0.176459
50.400000	0.176537
50.450000	0.176637
50.500000	0.176135
50.550000	0.175349
50.600000	0.175359
50.650000	0.175729
50.700000	0.175993
50.750000	0.175999
50.800000	0.175900
50.850000	0.175868
50.900000	0.176029
50.950000	0.176167
51.000000	0.176353
51.050000	0.176364
51.100000	0.176503
51.150000	0.176088
51.200000	0.175197
51.250000	0.175117
51.300000	0.175391
51.350000	0.175677
51.400000	0.175811
51.450000	0.175727
51.500000	0.175687
51.550000	0.175835
51.600000	0.176032
51.650000	0.176150
51.700000	0.176181
51.750000	0.176319
51.800000	0.176075
51.850000	0.175112
51.900000	0.174923
51.950000	0.175176
52.000000	0.175422
52.050000	0.175551
52.100000	0.175424
52.150000	0.175357
52.200000	0.175543
52.250000	0.175742
52.300000	0.175928
52.350000	0.176049
52.400000	0.176157
52.450000	0.176193
52.500000	0.175436
52.550000	0.174841
52.600000	0.175053
52.650000	0.175265
52.700000	0.175521
52.750000	0.175502
52.800000	0.175514
52.850000	0.175701
52.900000	0.175955
52.950000	0.176160
53.000000	0.176371
53.050000	0.176547
53.100000	0.176679
53.150000	0.176231
53.200000	0.175425
53.250000	0.175406
53.300000	0.175787
53.350000	0.176075
53.400000	0.176131
53.450000	0.176002
53.500000	0.176090
53.550000	0.176257
53.600000	0.176397
53.650000	0.176506
53.700000	0.176635
53.750000	0.176721
53.800000	0.176251
53.850000	0.175500
53.900000	0.175527
53.950000	0.175927
54.000000	0.176208
54.050000	0.176255
54.100000	0.176185
54.150000	0.176235
54.200000	0.176391
54.250000	0.176562
54.300000	0.176732
54.350000	0.176837
54.400000	0.176844
54.450000	0.176161
54.500000	0.175487
54.550000	0.175658
54.600000	0.176028
54.650000	0.176292
54.700000	0.176221
54.750000	0.176105
54.800000	0.176194
54.850000	0.176354
54.900000	0.176496
54.950000	0.176679
55.000000	0.176774
55.050000	0.176523
55.100000	0.175581
55.150000	0.175299
55.200000	0.175588
55.250000	0.175897
55.300000	0.175965
55.350000	0.175887
55.400000	0.175836
55.450000	0.175994
55.500000	0.176167
55.550000	0.176340
55.600000	0.176461
55.650000	0.176659
55.700000	0.176080
55.750000	0.175284
55.800000	0.175307
55.850000	0.175592
55.900000	0.175756
55.950000	0.175692
56.000000	0.175598
56.050000	0.175590
56.100000	0.175803
56.150000	0.175957
56.200000	0.176008
56.250000	0.176190
56.300000	0.176203
56.350000	0.175390
56.400000	0.174791
56.450000	0.175031
56.500000	0.175386
56.550000	0.175619
56.600000	0.175587
56.650000	0.175537
56.700000	0.175747
56.750000	0.175944
56.800000	0.176177
56.850000	0.176308
56.900000	0.176532
56.950000	0.176524
57.000000	0.175702
57.050000	0.175421
57.100000	0.175704
57.150000	0.176098
57.200000	0.176253
57.250000	0.176165
57.300000	0.176092
57.350000	0.176207
57.400000	0.176402
57.450000	0.176550
57.500000	0.176650
57.550000	0.176830
57.600000	0.176399
57.650000	0.175507
57.700000	0.175458
57.750000	0.175750
57.800000	0.176040
57.850000	0.176078
57.900000	0.175903
57.950000	0.175927
58.000000	0.176100
58.050000	0.176287
58.100000	0.176385
58.150000	0.176501
58.200000	0.176389
58.250000	0.175535
58.300000	0.175013
58.350000	0.175209
58.400000	0.175462
58.450000	0.175629
58.500000	0.175565
58.550000	0.175450
58.600000	0.175527
58.650000	0.175640
58.700000	0.175704
58.750000	0.175733
58.800000	0.175759
58.850000	0.175283
58.900000	0.174420
58.950000	0.174327
59.000000	0.174619
59.050000	0.174754
59.100000	0.174918
59.150000	0.174739
59.200000	0.174728
59.250000	0.174911
59.300000	0.175105
59.350000	0.175162
59.400000	0.175270
59.450000	0.175419
59.500000	0.174857
59.550000	0.174041
59.600000	0.174130
59.650000	0.174407
59.700000	0.174615
59.750000	0.174642
59.800000	0.174559
59.850000	0.174619
59.900000	0.174854
59.950000	0.175004
60.000000	0.175108
60.050000	0.175268
60.100000	0.175398
60.150000	0.175015
60.200000	0.174241
60.250000	0.174197
60.300000	0.174526
60.350000	0.174868
60.400000	0.174987
60.450000	0.174904
60.500000	0.175025
60.550000	0.175253
60.600000	0.175436
60.650000	0.175572
60.700000	0.175731
60.750000	0.175863
60.800000	0.175772
60.850000	0.174970
60.900000	0.174622
60.950000	0.174950
61.000000	0.175247
61.050000	0.175464
61.100000	0.175351
61.150000	0.175278
61.200000	0.175379
61.250000	0.175503
61.300000	0.175643
61.350000	0.175692
61.400000	0.175724
61.450000	0.175804
61.500000	0.175131
61.550000	0.174469
61.600000	0.174568
61.650000	0.174863
61.700000	0.175072
61.750000	0.175069
61.800000	0.174928
61.850000	0.174990
61.900000	0.175197
61.950000	0.175355
62.000000	0.175473
62.050000	0.175459
62.100000	0.175621
62.150000	0.175195
62.200000	0.174383
62.250000	0.174247
62.300000	0.174460
62.350000	0.174728
62.400000	0.174867
62.450000	0.174812
62.500000	0.174805
62.550000	0.175025
62.600000	0.175241
62.650000	0.175428
62.700000	0.175533
62.750000	0.175724
62.800000	0.175621
62.850000	0.174782
62.900000	0.174446
62.950000	0.174702
63.000000	0.175037
63.050000	0.175202
63.100000	0.175126
63.150000	0.175151
63.200000	0.175298
63.250000	0.175540
63.300000	0.175721
63.350000	0.175926
63.400000	0.176090
63.450000	0.176161
63.500000	0.175447
63.550000	0.174862
63.600000	0.174960
63.650000	0.175240
63.700000	0.175440
63.750000	0.175429
63.800000	0.175371
63.850000	0.175477
63.900000	0.175680
63.950000	0.175862
64.000000	0.176053
64.050000	0.176198
64.100000	0.176323
64.150000	0.175811
64.200000	0.175175
64.250000	0.175287
64.300000	0.175641
64.350000	0.175944
64.400000	0.175889
64.450000	0.175816
64.500000	0.175863
64.550000	0.176021
64.600000	0.176211
64.650000	0.176391
64.700000	0.176557
64.750000	0.176588
64.800000	0.175891
64.850000	0.175306
64.900000	0.175450
64.950000	0.175867
65.000000	0.176158
65.050000	0.176174
65.100000	0.176097
65.150000	0.176194
65.200000	0.176378
65.250000	0.176511
65.300000	0.176649
65.350000	0.176777
65.400000	0.176613
65.450000	0.175640
65.500000	0.175391
65.550000	0.175659
65.600000	0.175953
65.650000	0.176152
65.700000	0.175989
65.750000	0.175966
65.800000	0.176139
65.850000	0.176310
65.900000	0.176504
65.950000	0.176646
66.000000	0.176717
66.050000	0.176047
66.100000	0.175276
66.150000	0.175394
66.200000	0.175652
66.250000	0.175884
66.300000	0.175866
66.350000	0.175730
66.400000	0.175831
66.450000	0.176004
66.500000	0.176144
66.550000	0.176307
66.600000	0.176420
66.650000	0.176313
66.700000	0.175430
66.750000	0.175066
66.800000	0.175336
66.850000	0.175618
66.900000	0.175832
66.950000	0.175782
67.000000	0.175690
67.050000	0.175808
67.100000	0.176019
67.150000	0.176224
67.200000	0.176291
67.250000	0.176443
67.300000	0.176297
67.350000	0.175429
67.400000	0.175207
67.450000	0.175469
67.500000	0.175807
67.550000	0.175942
67.600000	0.175862
67.650000	0.175906
67.700000	0.176084
67.750000	0.176290
67.800000	0.176466
67.850000	0.176572
67.900000	0.176695
67.950000	0.176574
68.000000	0.175764
68.050000	0.175413
68.100000	0.175732
68.150000	0.176054
68.200000	0.176257
68.250000	0.176269
68.300000	0.176254
68.350000	0.176365
68.400000	0.176504
68.450000	0.176620
68.500000	0.176749
68.550000	0.176861
68.600000	0.176828
68.650000	0.176046
68.700000	0.175619
68.750000	0.175841
68.800000	0.176167
68.850000	0.176357
68.900000	0.176253
68.950000	0.176206
69.000000	0.176354
69.050000	0.176554
69.100000	0.176674
69.150000	0.176789
69.200000	0.176914
69.250000	0.176820
69.300000	0.176026
69.350000	0.175523
69.400000	0.175732
69.450000	0.175966
69.500000	0.176164
69.550000	0.176100
69.600000	0.176008
69.650000	0.176059
69.700000	0.176251
69.750000	0.176364
69.800000	0.176449
69.850000	0.176559
69.900000	0.176461
69.950000	0.175586
70.000000	0.175233
70.050000	0.175438
70.100000	0.175791
70.150000	0.175972
70.200000	0.175879
70.250000	0.175850
70.300000	0.175910
70.350000	0.176081
70.400000	0.176179
70.450000	0.176232
70.500000	0.176342
70.550000	0.176193
70.600000	0.175297
70.650000	0.174884
70.700000	0.175031
70.750000	0.175263
70.800000	0.175360
70.850000	0.175322
70.900000	0.175288
70.950000	0.175461
71.000000	0.175646
71.050000	0.175789
71.100000	0.175964
71.150000	0.176072
71.200000	0.175914
71.250000	0.175078
71.300000	0.174846
71.350000	0.175060
71.400000	0.175325
71.450000	0.175412
71.500000	0.175298
71.550000	0.175286
71.600000	0.175358
71.650000	0.175560
71.700000	0.175638
71.750000	0.175687
71.800000	0.175859
71.850000	0.175513
71.900000	0.174731
71.950000	0.174641
72.000000	0.174968
72.050000	0.175291
72.100000	0.175443
72.150000	0.175377
72.200000	0.175385
72.250000	0.175647
72.300000	0.175762
72.350000	0.175938
72.400000	0.176086
72.450000	0.176157
72.500000	0.175474
72.550000	0.174899
72.600000	0.175064
72.650000	0.175384
72.700000	0.175589
72.750000	0.175642
72.800000	0.175550
72.850000	0.175746
72.900000	0.175907
72.950000	0.176139
73.000000	0.176263
73.050000	0.176408
73.100000	0.176202
73.150000	0.175242
73.200000	0.175110
73.250000	0.175376
73.300000	0.175684
73.350000	0.175770
73.400000	0.175688
73.450000	0.175748
73.500000	0.175887
73.550000	0.176027
73.600000	0.176153
73.650000	0.176236
73.700000	0.176193
73.750000	0.175520
73.800000	0.174749
73.850000	0.174916
73.900000	0.175132
73.950000	0.175354
74.000000	0.175329
74.050000	0.175271
74.100000	0.175267
74.150000	0.175433
74.200000	0.175553
74.250000	0.175679
74.300000	0.175821
74.350000	0.175881
74.400000	0.175106
74.450000	0.174521
74.500000	0.174667
74.550000	0.174970
74.600000	0.175253
74.650000	0.175257
74.700000	0.175158
74.750000	0.175311
74.800000	0.175491
74.850000	0.175642
74.900000	0.175776
74.950000	0.175882
75.000000	0.175998
75.050000	0.175627
75.100000	0.174774
75.150000	0.174671
75.200000	0.174917
75.250000	0.175190
75.300000	0.175236
75.350000	0.175128
75.400000	0.175213
75.450000	0.175420
75.500000	0.175612
75.550000	0.175762
75.600000	0.175890
75.650000	0.175991
75.700000	0.176037
75.750000	0.175262
75.800000	0.174804
75.850000	0.175122
75.900000	0.175496
75.950000	0.175799
76.000000	0.175821
76.050000	0.175765
76.100000	0.175884
76.150000	0.176040
76.200000	0.176208
76.250000	0.176355
76.300000	0.176448
76.350000	0.176582
76.400000	0.176089
76.450000	0.175267
76.500000	0.175286
76.550000	0.175587
76.600000	0.175871
76.650000	0.175897
76.700000	0.175740
76.750000	0.175825
76.800000	0.176020
76.850000	0.176113
76.900000	0.176297
76.950000	0.176372
77.000000	0.176518
77.050000	0.176250
77.100000	0.175389
77.150000	0.175312
77.200000	0.175611
77.250000	0.175852
77.300000	0.175952
77.350000	0.175834
77.400000	0.175748
77.450000	0.175924
77.500000	0.176036
77.550000	0.176177
77.600000	0.176322
77.650000	0.176418
77.700000	0.175989
77.750000	0.175164
77.800000	0.175083
77.850000	0.175354
77.900000	0.175558
77.950000	0.175622
78.000000	0.175460
78.050000	0.175458
78.100000	0.175629
78.150000	0.175734
78.200000	0.175862
78.250000	0.175947
78.300000	0.176062
78.350000	0.175501
78.400000	0.174744
78.450000	0.174812
78.500000	0.175057
78.550000	0.175247
78.600000	0.175325
78.650000	0.175232
78.700000	0.175279
78.750000	0.175448
78.800000	0.175577
78.850000	0.175722
78.900000	0.175850
78.950000	0.175889
79.000000	0.175097
79.050000	0.174597
79.100000	0.174843
79.150000	0.175144
79.200000	0.175288
79.250000	0.175193
79.300000	0.175107
79.350000	0.175300
79.400000	0.175454
79.450000	0.175590
79.500000	0.175724
79.550000	0.175810
79.600000	0.175602
79.650000	0.174658
79.700000	0.174554
79.750000	0.174896
79.800000	0.175204
79.850000	0.175375
79.900000	0.175245
79.950000	0.175302
80.000000	0.175458
80.050000	0.175648
80.100000	0.175755
80.150000	0.175873
80.200000	0.175896
80.250000	0.175191
80.300000	0.174489
80.350000	0.174659
80.400000	0.175013
80.450000	0.175299
80.500000	0.175296
80.550000	0.175186
80.600000	0.175307
80.650000	0.175557
80.700000	0.175680
80.750000	0.175773
80.800000	0.175898
80.850000	0.175586
80.900000	0.174666
80.950000	0.174394
81.000000	0.174703
81.050000	0.174967
81.100000	0.175113
81.150000	0.174885
81.200000	0.174925
81.250000	0.175163
81.300000	0.175240
81.350000	0.175389
81.400000	0.175458
81.450000	0.175434
81.500000	0.174670
81.550000	0.173989
81.600000	0.174064
81.650000	0.174316
81.700000	0.174460
81.750000	0.174367
81.800000	0.174273
81.850000	0.174432
81.900000	0.174656
81.950000	0.174824
82.000000	0.174966
82.050000	0.175025
82.100000	0.175044
82.150000	0.174184
82.200000	0.173666
82.250000	0.173814
82.300000	0.174089
82.350000	0.174169
82.400000	0.174068
82.450000	0.173941
82.500000	0.174032
82.550000	0.174150
82.600000	0.174275
82.650000	0.174407
82.700000	0.174520
82.750000	0.174599
82.800000	0.173828
82.850000	0.173177
82.900000	0.173460
82.950000	0.173813
83.000000	0.174083
83.050000	0.174085
83.100000	0.174107
83.150000	0.174292
83.200000	0.174551
83.250000	0.174826
83.300000	0.174927
83.350000	0.175133
83.400000	0.175303
83.450000	0.174966
83.500000	0.174217
83.550000	0.174200
83.600000	0.174601
83.650000	0.174877
83.700000	0.174903
83.750000	0.174880
83.800000	0.174879
83.850000	0.175101
83.900000	0.175254
83.950000	0.175348
84.000000	0.175463
84.050000	0.175607
84.100000	0.175243
84.150000	0.174435
84.200000	0.174325
84.250000	0.174669
84.300000	0.174996
84.350000	0.175013
84.400000	0.174915
84.450000	0.174995
84.500000	0.175150
84.550000	0.175329
84.600000	0.175427
84.650000	0.175465
84.700000	0.175449
84.750000	0.174725
84.800000	0.174078
84.850000	0.174169
84.900000	0.174445
84.950000	0.174790
85.000000	0.174688
85.050000	0.174598
85.100000	0.174611
85.150000	0.174818
85.200000	0.174906
85.250000	0.175050
85.300000	0.175133
85.350000	0.175068
85.400000	0.174004
85.450000	0.173697
85.500000	0.173867
85.550000	0.174194
85.600000	0.174305
85.650000	0.174220
85.700000	0.174210
85.750000	0.174313
85.800000	0.174470
85.850000	0.174588
85.900000	0.174725
85.950000	0.174880
86.000000	0.174354
86.050000	0.173578
86.100000	0.173638
86.150000	0.173950
86.200000	0.174204
86.250000	0.174189
86.300000	0.174093
86.350000	0.174200
86.400000	0.174414
86.450000	0.174645
86.500000	0.174770
86.550000	0.174895
86.600000	0.174831
86.650000	0.173889
86.700000	0.173590
86.750000	0.173940
86.800000	0.174415
86.850000	0.174600
86.900000	0.174459
86.950000	0.174496
87.000000	0.174647
87.050000	0.174821
87.100000	0.175032
87.150000	0.175252
87.200000	0.175312
87.250000	0.174564
87.300000	0.173986
87.350000	0.174210
87.400000	0.174601
87.450000	0.174852
87.500000	0.174809
87.550000	0.174750
87.600000	0.174882
87.650000	0.175073
87.700000	0.175186
87.750000	0.175330
87.800000	0.175332
87.850000	0.174417
87.900000	0.173920
87.950000	0.174197
88.000000	0.174642
88.050000	0.174781
88.100000	0.174623
88.150000	0.174535
88.200000	0.174637
88.250000	0.174837
88.300000	0.174955
88.350000	0.174997
88.400000	0.174725
88.450000	0.173762
88.500000	0.173511
88.550000	0.173795
88.600000	0.174109
88.650000	0.174180
88.700000	0.174017
88.750000	0.174010
88.800000	0.174187
88.850000	0.174335
88.900000	0.174386
88.950000	0.174529
89.000000	0.173998
89.050000	0.173063
89.100000	0.173026
89.150000	0.173270
89.200000	0.173558
89.250000	0.173622
89.300000	0.173448
89.350000	0.173570
89.400000	0.173819
89.450000	0.173969
89.500000	0.174114
89.550000	0.174309
89.600000	0.174046
89.650000	0.173083
89.700000	0.172916
89.750000	0.173203
89.800000	0.173438
89.850000	0.173522
89.900000	0.173428
89.950000	0.173492
90.000000	0.173747
90.050000	0.173840
90.100000	0.173982
90.150000	0.174152
90.200000	0.174101
90.250000	0.173305
90.300000	0.172990
90.350000	0.173282
90.400000	0.173615
90.450000	0.173841
90.500000	0.173737
90.550000	0.173652
90.600000	0.173949
90.650000	0.174092
90.700000	0.174206
90.750000	0.174388
90.800000	0.174520
90.850000	0.174018
90.900000	0.173136
90.950000	0.173075
91.000000	0.173368
91.050000	0.173649
91.100000	0.173661
91.150000	0.173428
91.200000	0.173624
91.250000	0.173883
91.300000	0.174064
91.350000	0.174283
91.400000	0.174397
91.450000	0.174496
91.500000	0.173718
91.550000	0.173116
91.600000	0.173290
91.650000	0.173652
91.700000	0.173893
91.750000	0.173768
91.800000	0.173658
91.850000	0.173730
91.900000	0.173859
91.950000	0.174072
92.000000	0.174160
92.050000	0.174296
92.100000	0.174151
92.150000	0.173208
92.200000	0.172833
92.250000	0.173072
92.300000	0.173341
92.350000	0.173491
92.400000	0.173399
92.450000	0.173402
92.500000	0.173645
92.550000	0.173914
92.600000	0.174052
92.650000	0.174221
92.700000	0.174322
92.750000	0.174217
92.800000	0.173233
92.850000	0.172850
92.900000	0.173055
92.950000	0.173369
93.000000	0.173465
93.050000	0.173390
93.100000	0.173250
93.150000	0.173393
93.200000	0.173692
93.250000	0.173801
93.300000	0.173948
93.350000	0.174061
93.400000	0.174153
93.450000	0.173475
93.500000	0.172766
93.550000	0.172932
93.600000	0.173222
93.650000	0.173508
93.700000	0.173540
93.750000	0.173468
93.800000	0.173614
93.850000	0.173878
93.900000	0.174137
93.950000	0.174336
94.000000	0.174472
94.050000	0.174553
94.100000	0.173938
94.150000	0.173191
94.200000	0.173327
94.250000	0.173681
94.300000	0.173906
94.350000	0.173876
94.400000	0.173740
94.450000	0.173826
94.500000	0.173991
94.550000	0.174186
94.600000	0.174336
94.650000	0.174459
94.700000	0.174591
94.750000	0.173858
94.800000	0.173263
94.850000	0.173437
94.900000	0.173843
94.950000	0.174104
95.000000	0.174070
95.050000	0.174004
95.100000	0.174141
95.150000	0.174320
95.200000	0.174407
95.250000	0.174522
95.300000	0.174613
95.350000	0.173986
95.400000	0.173130
95.450000	0.173148
95.500000	0.173540
95.550000	0.173835
95.600000	0.173844
95.650000	0.173664
95.700000	0.173744
95.750000	0.173886
95.800000	0.174051
95.850000	0.174123
95.900000	0.174248
95.950000	0.173664
96.000000	0.172756
96.050000	0.172750
96.100000	0.173069
96.150000	0.173385
96.200000	0.173380
96.250000	0.173165
96.300000	0.173279
96.350000	0.173401
96.400000	0.173581
96.450000	0.173692
96.500000	0.173789
96.550000	0.173032
96.600000	0.172254
96.650000	0.172355
96.700000	0.172691
96.750000	0.172895
96.800000	0.172927
96.850000	0.172756
96.900000	0.172988
96.950000	0.173201
97.000000	0.173388
97.050000	0.173574
97.100000	0.173583
97.150000	0.172837
97.200000	0.172133
97.250000	0.172347
97.300000	0.172669
97.350000	0.172830
97.400000	0.172869
97.450000	0.172749
97.500000	0.172897
97.550000	0.173101
97.600000	0.173230
97.650000	0.173350
97.700000	0.173246
97.750000	0.172444
97.800000	0.171800
97.850000	0.171886
97.900000	0.172203
97.950000	0.172384
98.000000	0.172278
98.050000	0.172224
98.100000	0.172442
98.150000	0.172691
98.200000	0.172886
98.250000	0.173007
98.300000	0.173151
98.350000	0.172436
98.400000	0.171869
98.450000	0.172059
98.500000	0.172472
98.550000	0.172708
98.600000	0.172623
98.650000	0.172555
98.700000	0.172755
98.750000	0.172824
98.800000	0.173060
98.850000	0.173280
98.900000	0.173423
98.950000	0.172906
99.000000	0.172156
99.050000	0.172246
99.100000	0.172642
99.150000	0.172887
99.200000	0.172888
99.250000	0.172797
99.300000	0.172860
99.350000	0.173125
99.400000	0.173258
99.450000	0.173321
99.500000	0.173450
99.550000	0.172919
99.600000	0.172031
99.650000	0.172055
99.700000	0.172452
99.750000	0.172675
99.800000	0.172630
99.850000	0.172503
99.900000	0.172590
99.950000	0.172762
100.000000	0.172982
100.050000	0.173038
100.100000	0.173216
100.150000	0.172801
100.200000	0.171783
100.250000	0.171679
100.300000	0.172019
100.350000	0.172196
100.400000	0.172235
100.450000	0.172069
100.500000	0.172175
100.550000	0.172379
100.600000	0.172548
100.650000	0.172691
100.700000	0.172802
100.750000	0.172680
100.800000	0.171652
100.850000	0.171177
100.900000	0.171452
100.950000	0.171710
101.000000	0.171873
101.050000	0.171707
101.100000	0.171665
101.150000	0.171876
101.200000	0.172096
101.250000	0.172332
101.300000	0.172512
101.350000	0.172694
101.400000	0.172297
101.450000	0.171435
101.500000	0.171305
101.550000	0.171631
101.600000	0.171820
101.650000	0.171882
101.700000	0.171726
101.750000	0.171840
101.800000	0.172112
101.850000	0.172277
101.900000	0.172423
101.950000	0.172620
102.000000	0.172773
102.050000	0.172231
102.100000	0.171457
102.150000	0.171525
102.200000	0.171876
102.250000	0.172159
102.300000	0.172205
102.350000	0.172123
102.400000	0.172278
102.450000	0.172494
102.500000	0.172668
102.550000	0.172789
102.600000	0.172871
102.650000	0.172825
102.700000	0.171951
102.750000	0.171307
102.800000	0.171503
102.850000	0.171930
102.900000	0.172174
102.950000	0.172166
103.000000	0.172156
103.050000	0.172398
103.100000	0.172695
103.150000	0.172881
103.200000	0.173152
103.250000	0.173361
103.300000	0.172943
103.350000	0.172028
103.400000	0.172018
103.450000	0.172379
103.500000	0.172648
103.550000	0.172687
103.600000	0.172668
103.650000	0.172768
103.700000	0.173085
103.750000	0.173276
103.800000	0.173501
103.850000	0.173589
103.900000	0.173432
103.950000	0.172433
104.000000	0.172002
104.050000	0.172295
104.100000	0.172583
104.150000	0.172746
104.200000	0.172581
104.250000	0.172562
104.300000	0.172737
104.350000	0.173003
104.400000	0.173048
104.450000	0.173261
104.500000	0.173185
104.550000	0.172195
104.600000	0.171651
104.650000	0.171894
104.700000	0.172241
104.750000	0.172362
104.800000	0.172272
104.850000	0.172177
104.900000	0.172403
104.950000	0.172613
105.000000	0.172772
105.050000	0.172996
105.100000	0.173068
105.150000	0.172117
105.200000	0.171626
105.250000	0.171874
105.300000	0.172091
105.350000	0.172325
105.400000	0.172213
105.450000	0.172170
105.500000	0.172308
105.550000	0.172490
105.600000	0.172674
105.650000	0.172815
105.700000	0.172880
105.750000	0.171978
105.800000	0.171480
105.850000	0.171758
105.900000	0.172128
105.950000	0.172406
106.000000	0.172311
106.050000	0.172428
106.100000	0.172602
106.150000	0.172791
106.200000	0.173031
106.250000	0.173256
106.300000	0.173311
106.350000	0.172305
106.400000	0.171941
106.450000	0.172201
106.500000	0.172530
106.550000	0.172655
106.600000	0.172506
106.650000	0.172536
106.700000	0.172668
106.750000	0.172862
106.800000	0.173128
106.850000	0.173304
106.900000	0.173229
106.950000	0.172230
107.000000	0.171958
107.050000	0.172249
107.100000	0.172660
107.150000	0.172795
107.200000	0.172674
107.250000	0.172613
107.300000	0.172766
107.350000	0.172942
107.400000	0.172971
107.450000	0.173124
107.500000	0.172793
107.550000	0.171638
107.600000	0.171415
107.650000	0.171772
107.700000	0.172120
107.750000	0.172236
107.800000	0.172084
107.850000	0.172135
107.900000	0.172362
107.950000	0.172510
108.000000	0.172643
108.050000	0.172724
108.100000	0.172578
108.150000	0.171454
108.200000	0.171180
108.250000	0.171484
108.300000	0.171743
108.350000	0.171721
108.400000	0.171667
108.450000	0.171683
108.500000	0.171899
108.550000	0.172061
108.600000	0.172115
108.650000	0.172193
108.700000	0.172313
108.750000	0.171710
108.800000	0.170892
108.850000	0.171071
108.900000	0.171418
108.950000	0.171681
109.000000	0.171683
109.050000	0.171601
109.100000	0.171621
109.150000	0.171868
109.200000	0.171942
109.250000	0.171915
109.300000	0.172099
109.350000	0.172070
109.400000	0.171141
109.450000	0.170595
109.500000	0.171083
109.550000	0.171476
109.600000	0.171737
109.650000	0.171878
109.700000	0.171937
109.750000	0.172109
109.800000	0.172354
109.850000	0.172482
109.900000	0.172593
109.950000	0.172849
110.000000	0.172830
110.050000	0.171876
110.100000	0.171385
110.150000	0.171744
110.200000	0.172094
110.250000	0.172284
110.300000	0.172227
110.350000	0.172246
110.400000	0.172541
110.450000	0.172739
110.500000	0.172994
110.550000	0.173063
110.600000	0.173245
110.650000	0.172999
110.700000	0.172026
110.750000	0.171734
110.800000	0.172090
110.850000	0.172369
110.900000	0.172410
110.950000	0.172206
111.000000	0.172143
111.050000	0.172252
111.100000	0.172375
111.150000	0.172606
111.200000	0.172420
111.250000	0.172155
111.300000	0.171403
111.350000	0.170404
111.400000	0.170308
111.450000	0.170904
111.500000	0.171298
111.550000	0.171437
111.600000	0.171544
111.650000	0.171842
111.700000	0.172003
111.750000	0.172029
111.800000	0.172191
111.850000	0.172140
111.900000	0.171970
111.950000	0.170844
112.000000	0.169752
112.050000	0.169650
112.100000	0.169562
112.150000	0.169267
112.200000	0.169090
112.250000	0.169166
112.300000	0.169294
112.350000	0.169653
112.400000	0.170138
112.450000	0.170728
112.500000	0.171124
112.550000	0.171459
112.600000	0.170676
112.650000	0.170099
112.700000	0.170366
112.750000	0.170851
112.800000	0.171315
112.850000	0.171599
112.900000	0.171704
112.950000	0.171691
113.000000	0.171733
113.050000	0.171960
113.100000	0.172300
113.150000	0.172602
113.200000	0.172967
113.250000	0.172437
113.300000	0.172228
113.350000	0.172504
113.400000	0.173061
113.450000	0.173456
113.500000	0.173393
113.550000	0.173407
113.600000	0.173649
113.650000	0.173753
113.700000	0.173798
113.750000	0.173812
113.800000	0.173791
113.850000	0.173381
113.900000	0.172319
113.950000	0.172376
114.000000	0.172904
114.050000	0.173356
114.100000	0.173427
114.150000	0.173234
114.200000	0.173174
114.250000	0.173447
114.300000	0.173582
114.350000	0.173567
114.400000	0.173756
114.450000	0.173903
114.500000	0.172876
114.550000	0.172280
114.600000	0.172549
114.650000	0.172812
114.700000	0.173194
114.750000	0.173127
114.800000	0.173314
114.850000	0.173171
114.900000	0.173354
114.950000	0.173550
115.000000	0.173467
115.050000	0.173527
115.100000	0.172519
115.150000	0.172182
115.200000	0.172489
115.250000	0.173139
115.300000	0.173654
115.350000	0.173546
115.400000	0.173470
115.450000	0.173701
115.500000	0.173941
115.550000	0.174078
115.600000	0.174351
115.650000	0.173862
115.700000	0.172879
115.750000	0.172739
115.800000	0.173101
115.850000	0.173642
115.900000	0.174097
115.950000	0.174246
116.000000	0.174408
116.050000	0.174586
116.100000	0.174712
116.150000	0.174740
116.200000	0.174790
116.250000	0.174331
116.300000	0.173432
116.350000	0.173484
116.400000	0.174005
116.450000	0.174384
116.500000	0.174231
116.550000	0.173042
116.600000	0.171048
116.650000	0.169872
116.700000	0.171052
116.750000	0.171809
116.800000	0.164700
116.850000	0.120167
116.900000	0.085742
116.950000	0.083616
117.000000	0.077022
117.050000	0.049015
117.100000	0.018358
117.150000	0.002494
117.200000	0.015034
117.250000	0.066465
117.300000	0.014274
117.350000	0.009603
117.400000	0.006245
117.450000	0.005147
117.500000	0.004222
117.550000	0.002470
117.600000	0.001845
117.650000	0.001512
117.700000	0.001219
117.750000	0.000837
117.800000	0.000757
117.850000	0.000690
117.900000	0.000667
117.950000	0.000855
118.000000	0.001093
118.050000	0.001444
118.100000	0.002803
118.150000	0.004214
118.200000	0.004396
118.250000	0.004205
118.300000	0.004321
118.350000	0.004095
118.400000	0.003706
118.450000	0.003401
118.500000	0.003309
118.550000	0.003423
118.600000	0.003541
118.650000	0.003768
118.700000	0.003887
118.750000	0.003637
118.800000	0.003397
118.850000	0.003317
118.900000	0.003257
118.950000	0.003279
119.000000	0.003340
119.050000	0.003458
119.100000	0.003437
119.150000	0.003303
119.200000	0.003261
119.250000	0.003304
