0.000000	0.009513
0.050000	0.009622
0.100000	0.009784
0.150000	0.009735
0.200000	0.009830
0.250000	0.009834
0.300000	0.009830
0.350000	0.009851
0.400000	0.009717
0.450000	0.009926
0.500000	0.009998
0.550000	0.010132
0.600000	0.015266
0.650000	0.015513
0.700000	0.017009
0.750000	0.014511
0.800000	0.013415
0.850000	0.014022
0.900000	0.019289
0.950000	0.035699
1.000000	0.071035
1.050000	0.106190
1.100000	0.138523
1.150000	0.134714
1.200000	0.016739
1.250000	0.009453
1.300000	0.009026
1.350000	0.009429
1.400000	0.009878
1.450000	0.020866
1.500000	0.027264
1.550000	0.017089
1.600000	0.013379
1.650000	0.263609
1.700000	0.368054
1.750000	0.460685
1.800000	0.535683
1.850000	0.353402
1.900000	0.207880
1.950000	0.171261
2.000000	0.340604
2.050000	0.789533
2.100000	1.387750
2.150000	1.730920
2.200000	2.415873
2.250000	2.563554
2.300000	2.866326
2.350000	0.837240
2.400000	0.048045
2.450000	0.038212
2.500000	0.042412
2.550000	0.035288
2.600000	0.035054
2.650000	0.037099
2.700000	0.040633
2.750000	0.045688
2.800000	0.051859
2.850000	0.055471
2.900000	0.058745
2.950000	0.064281
3.000000	0.080186
3.050000	0.103644
3.100000	0.128321
3.150000	0.163498
3.200000	0.192482
3.250000	0.201345
3.300000	0.203551
3.350000	0.184907
3.400000	0.175924
3.450000	0.171042
3.500000	0.185028
3.550000	0.215954
3.600000	0.215220
3.650000	0.237032
3.700000	0.257048
3.750000	0.254615
3.800000	0.272477
3.850000	0.323261
3.900000	0.348593
3.950000	0.357526
4.000000	0.353905
4.050000	0.301424
4.100000	0.271332
4.150000	0.272808
4.200000	0.266908
4.250000	0.250683
4.300000	0.235652
4.350000	0.244104
4.400000	0.250324
4.450000	0.242146
4.500000	0.231046
4.550000	0.238079
4.600000	0.248693
4.650000	0.245722
4.700000	0.251092
4.750000	0.260269
4.800000	0.255548
4.850000	0.255087
4.900000	0.268948
4.950000	0.302080
5.000000	0.334466
5.050000	0.352179
5.100000	0.355124
5.150000	0.346256
5.200000	0.338528
5.250000	0.335570
5.300000	0.342106
5.350000	0.348805
5.400000	0.356639
5.450000	0.357636
5.500000	0.354581
5.550000	0.347400
5.600000	0.345879
5.650000	0.354284
5.700000	0.363506
5.750000	0.376534
5.800000	0.377607
5.850000	0.375850
5.900000	0.376440
5.950000	0.380494
6.000000	0.384874
6.050000	0.388687
6.100000	0.388700
6.150000	0.387806
6.200000	0.389393
6.250000	0.390566
6.300000	0.392274
6.350000	0.393417
6.400000	0.391601
6.450000	0.390977
6.500000	0.392720
6.550000	0.393921
6.600000	0.395519
6.650000	0.396214
6.700000	0.396221
6.750000	0.397396
6.800000	0.397535
6.850000	0.396793
6.900000	0.397029
6.950000	0.397317
7.000000	0.394516
7.050000	0.393189
7.100000	0.394262
7.150000	0.396111
7.200000	0.398400
7.250000	0.399979
7.300000	0.401318
7.350000	0.402847
7.400000	0.403860
7.450000	0.404968
7.500000	0.405791
7.550000	0.405894
7.600000	0.403710
7.650000	0.402180
7.700000	0.402226
7.750000	0.403147
7.800000	0.404470
7.850000	0.405137
7.900000	0.405533
7.950000	0.405707
8.000000	0.406366
8.050000	0.407037
8.100000	0.408104
8.150000	0.407792
8.200000	0.404317
8.250000	0.402711
8.300000	0.403448
8.350000	0.405055
8.400000	0.406056
8.450000	0.406189
8.500000	0.406705
8.550000	0.407624
8.600000	0.408865
8.650000	0.410311
8.700000	0.411541
8.750000	0.412296
8.800000	0.410670
8.850000	0.407566
8.900000	0.408067
8.950000	0.409744
9.000000	0.412016
9.050000	0.413189
9.100000	0.413266
9.150000	0.413656
9.200000	0.414195
9.250000	0.415002
9.300000	0.415648
9.350000	0.416023
9.400000	0.416676
9.450000	0.414678
9.500000	0.411776
9.550000	0.411984
9.600000	0.413381
9.650000	0.414806
9.700000	0.415341
9.750000	0.415317
9.800000	0.415498
9.850000	0.416406
9.900000	0.417207
9.950000	0.417857
10.000000	0.418428
10.050000	0.418773
10.100000	0.416562
10.150000	0.414080
10.200000	0.414539
10.250000	0.416033
10.300000	0.417444
10.350000	0.417871
10.400000	0.417659
10.450000	0.417939
10.500000	0.418831
10.550000	0.419866
10.600000	0.420643
10.650000	0.421653
10.700000	0.420129
10.750000	0.417534
10.800000	0.417900
10.850000	0.419383
10.900000	0.420295
10.950000	0.420514
11.000000	0.421029
11.050000	0.421790
11.100000	0.422583
11.150000	0.423465
11.200000	0.424245
11.250000	0.425257
11.300000	0.424773
11.350000	0.421663
11.400000	0.421036
11.450000	0.422302
11.500000	0.423974
11.550000	0.424456
11.600000	0.424160
11.650000	0.424064
11.700000	0.424533
11.750000	0.425534
11.800000	0.426336
11.850000	0.426985
11.900000	0.426985
11.950000	0.424394
12.000000	0.423400
12.050000	0.424442
12.100000	0.426163
12.150000	0.427166
12.200000	0.427033
12.250000	0.426898
12.300000	0.427347
12.350000	0.428066
12.400000	0.428807
12.450000	0.429691
12.500000	0.429775
12.550000	0.427233
12.600000	0.426439
12.650000	0.427433
12.700000	0.428938
12.750000	0.429852
12.800000	0.429912
12.850000	0.430222
12.900000	0.430858
12.950000	0.431597
13.000000	0.432402
13.050000	0.433182
13.100000	0.431146
13.150000	0.428577
13.200000	0.428847
13.250000	0.430462
13.300000	0.431895
13.350000	0.432182
13.400000	0.432091
13.450000	0.432226
13.500000	0.432797
13.550000	0.433442
13.600000	0.434105
13.650000	0.433899
13.700000	0.430441
13.750000	0.429194
13.800000	0.430228
13.850000	0.431754
13.900000	0.432666
13.950000	0.432546
14.000000	0.432284
14.050000	0.432778
14.100000	0.433292
14.150000	0.433957
14.200000	0.434404
14.250000	0.433161
14.300000	0.429675
14.350000	0.429167
14.400000	0.430352
14.450000	0.431750
14.500000	0.432593
14.550000	0.432458
14.600000	0.432376
14.650000	0.432983
14.700000	0.433632
14.750000	0.434276
14.800000	0.434952
14.850000	0.434330
14.900000	0.430720
14.950000	0.429714
15.000000	0.430992
15.050000	0.432503
15.100000	0.433379
15.150000	0.433384
15.200000	0.433385
15.250000	0.433929
15.300000	0.434620
15.350000	0.435216
15.400000	0.435881
15.450000	0.436462
15.500000	0.434624
15.550000	0.431329
15.600000	0.431474
15.650000	0.432968
15.700000	0.434158
15.750000	0.434697
15.800000	0.434536
15.850000	0.434724
15.900000	0.435201
15.950000	0.435914
16.000000	0.436583
16.050000	0.437033
16.100000	0.437532
16.150000	0.435549
16.200000	0.432655
16.250000	0.432985
16.300000	0.434539
16.350000	0.435647
16.400000	0.435952
16.450000	0.435729
16.500000	0.436054
16.550000	0.436755
16.600000	0.437481
16.650000	0.438101
16.700000	0.438535
16.750000	0.438835
16.800000	0.437263
16.850000	0.434254
16.900000	0.434267
16.950000	0.435618
17.000000	0.437096
17.050000	0.437296
17.100000	0.437063
17.150000	0.437072
17.200000	0.437712
17.250000	0.438305
17.300000	0.438837
17.350000	0.439331
17.400000	0.439595
17.450000	0.437679
17.500000	0.435001
17.550000	0.435270
17.600000	0.436831
17.650000	0.438181
17.700000	0.438295
17.750000	0.437997
17.800000	0.438153
17.850000	0.438764
17.900000	0.439435
17.950000	0.439959
18.000000	0.440623
18.050000	0.440317
18.100000	0.437156
18.150000	0.436082
18.200000	0.437411
18.250000	0.438963
18.300000	0.439673
18.350000	0.439401
18.400000	0.439346
18.450000	0.439780
18.500000	0.440568
18.550000	0.441163
18.600000	0.441594
18.650000	0.441976
18.700000	0.439327
18.750000	0.437197
18.800000	0.437493
18.850000	0.438870
18.900000	0.440203
18.950000	0.440587
19.000000	0.440437
19.050000	0.440660
19.100000	0.441298
19.150000	0.441949
19.200000	0.442549
19.250000	0.443036
19.300000	0.441476
19.350000	0.438142
19.400000	0.437843
19.450000	0.439032
19.500000	0.440342
19.550000	0.440954
19.600000	0.440629
19.650000	0.440818
19.700000	0.441357
19.750000	0.442231
19.800000	0.442763
19.850000	0.443415
19.900000	0.443220
19.950000	0.439975
20.000000	0.438403
20.050000	0.439215
20.100000	0.440359
20.150000	0.441349
20.200000	0.441325
20.250000	0.441138
20.300000	0.441573
20.350000	0.442112
20.400000	0.442822
20.450000	0.443354
20.500000	0.443880
20.550000	0.442866
20.600000	0.439510
20.650000	0.438986
20.700000	0.440005
20.750000	0.441313
20.800000	0.441887
20.850000	0.441875
20.900000	0.441721
20.950000	0.442274
21.000000	0.442851
21.050000	0.443472
21.100000	0.443813
21.150000	0.444112
21.200000	0.443599
21.250000	0.440250
21.300000	0.439153
21.350000	0.440010
21.400000	0.441320
21.450000	0.441997
21.500000	0.441999
21.550000	0.441882
21.600000	0.442444
21.650000	0.443088
21.700000	0.443757
21.750000	0.444308
21.800000	0.444718
21.850000	0.444442
21.900000	0.441339
21.950000	0.440147
22.000000	0.440976
22.050000	0.442347
22.100000	0.442981
22.150000	0.442903
22.200000	0.442858
22.250000	0.443179
22.300000	0.443986
22.350000	0.444574
22.400000	0.445097
22.450000	0.445597
22.500000	0.444697
22.550000	0.441445
22.600000	0.440732
22.650000	0.441834
22.700000	0.443036
22.750000	0.443598
22.800000	0.443408
22.850000	0.443432
22.900000	0.443760
22.950000	0.444559
23.000000	0.445066
23.050000	0.445468
23.100000	0.445927
23.150000	0.444171
23.200000	0.441131
23.250000	0.441122
23.300000	0.442313
23.350000	0.443494
23.400000	0.444104
23.450000	0.443982
23.500000	0.444107
23.550000	0.444614
23.600000	0.445365
23.650000	0.446061
23.700000	0.446576
23.750000	0.446795
23.800000	0.444242
23.850000	0.441604
23.900000	0.441713
23.950000	0.442916
24.000000	0.444021
24.050000	0.444490
24.100000	0.444281
24.150000	0.444461
24.200000	0.445010
24.250000	0.445590
24.300000	0.446189
24.350000	0.446508
24.400000	0.446847
24.450000	0.444577
24.500000	0.441692
24.550000	0.441664
24.600000	0.442816
24.650000	0.443976
24.700000	0.444475
24.750000	0.444401
24.800000	0.444485
24.850000	0.444934
24.900000	0.445739
24.950000	0.446518
25.000000	0.446889
25.050000	0.447443
25.100000	0.447164
25.150000	0.443778
25.200000	0.442162
25.250000	0.442986
25.300000	0.444185
25.350000	0.445284
25.400000	0.445352
25.450000	0.445225
25.500000	0.445701
25.550000	0.446258
25.600000	0.447019
25.650000	0.447518
25.700000	0.447881
25.750000	0.448397
25.800000	0.447659
25.850000	0.444085
25.900000	0.443380
25.950000	0.444563
26.000000	0.445838
26.050000	0.446526
26.100000	0.446516
26.150000	0.446614
26.200000	0.446910
26.250000	0.447684
26.300000	0.448286
26.350000	0.448882
26.400000	0.449211
26.450000	0.449279
26.500000	0.446470
26.550000	0.444406
26.600000	0.445184
26.650000	0.446488
26.700000	0.447540
26.750000	0.447710
26.800000	0.447358
26.850000	0.447396
26.900000	0.448025
26.950000	0.448745
27.000000	0.449307
27.050000	0.449705
27.100000	0.449987
27.150000	0.447166
27.200000	0.444843
27.250000	0.445510
27.300000	0.446887
27.350000	0.447971
27.400000	0.448085
27.450000	0.447941
27.500000	0.448215
27.550000	0.448949
27.600000	0.449719
27.650000	0.450398
27.700000	0.451020
27.750000	0.450588
27.800000	0.447180
27.850000	0.446015
27.900000	0.446972
27.950000	0.448330
28.000000	0.449343
28.050000	0.449346
28.100000	0.449241
28.150000	0.449583
28.200000	0.450228
28.250000	0.450858
28.300000	0.451370
28.350000	0.452055
28.400000	0.450752
28.450000	0.447192
28.500000	0.446562
28.550000	0.447543
28.600000	0.448821
28.650000	0.449510
28.700000	0.449469
28.750000	0.449437
28.800000	0.449953
28.850000	0.450572
28.900000	0.451209
28.950000	0.451692
29.000000	0.452220
29.050000	0.450414
29.100000	0.447128
29.150000	0.447101
29.200000	0.448253
29.250000	0.449618
29.300000	0.450443
29.350000	0.450300
29.400000	0.450387
29.450000	0.450910
29.500000	0.451590
29.550000	0.452180
29.600000	0.452625
29.650000	0.453118
29.700000	0.451615
29.750000	0.448228
29.800000	0.447732
29.850000	0.448888
29.900000	0.450116
29.950000	0.450751
30.000000	0.450775
30.050000	0.450785
30.100000	0.451257
30.150000	0.452051
30.200000	0.452473
30.250000	0.453070
30.300000	0.453411
30.350000	0.452849
30.400000	0.449349
30.450000	0.448246
30.500000	0.449334
30.550000	0.450505
30.600000	0.451230
30.650000	0.451162
30.700000	0.451101
30.750000	0.451501
30.800000	0.452271
30.850000	0.453022
30.900000	0.453558
30.950000	0.454089
31.000000	0.453419
31.050000	0.450057
31.100000	0.449350
31.150000	0.450305
31.200000	0.451780
31.250000	0.452435
31.300000	0.452199
31.350000	0.452193
31.400000	0.452627
31.450000	0.453526
31.500000	0.454123
31.550000	0.454888
31.600000	0.455193
31.650000	0.453388
31.700000	0.450496
31.750000	0.450641
31.800000	0.451878
31.850000	0.453139
31.900000	0.453453
31.950000	0.453223
32.000000	0.453473
32.050000	0.454024
32.100000	0.454667
32.150000	0.455276
32.200000	0.455730
32.250000	0.455205
32.300000	0.451788
32.350000	0.450574
32.400000	0.451498
32.450000	0.452650
32.500000	0.453597
32.550000	0.453495
32.600000	0.453299
32.650000	0.453701
32.700000	0.454347
32.750000	0.454995
32.800000	0.455353
32.850000	0.455790
32.900000	0.453813
32.950000	0.450780
33.000000	0.450785
33.050000	0.451855
33.100000	0.453022
33.150000	0.453548
33.200000	0.453398
33.250000	0.453391
33.300000	0.453746
33.350000	0.454372
33.400000	0.454961
33.450000	0.455365
33.500000	0.455738
33.550000	0.453290
33.600000	0.450482
33.650000	0.450812
33.700000	0.451992
33.750000	0.453188
33.800000	0.453722
33.850000	0.453567
33.900000	0.453768
33.950000	0.454428
34.000000	0.454981
34.050000	0.455711
34.100000	0.456119
34.150000	0.456495
34.200000	0.455005
34.250000	0.451824
34.300000	0.451696
34.350000	0.452802
34.400000	0.454070
34.450000	0.454813
34.500000	0.454751
34.550000	0.454812
34.600000	0.455345
34.650000	0.456070
34.700000	0.456558
34.750000	0.456967
34.800000	0.457477
34.850000	0.457481
34.900000	0.454358
34.950000	0.452682
35.000000	0.453472
35.050000	0.454777
35.100000	0.455784
35.150000	0.455821
35.200000	0.455714
35.250000	0.456077
35.300000	0.456745
35.350000	0.457278
35.400000	0.457815
35.450000	0.458277
35.500000	0.458680
35.550000	0.457014
35.600000	0.453881
35.650000	0.453899
35.700000	0.455101
35.750000	0.456289
35.800000	0.456865
35.850000	0.456711
35.900000	0.456877
35.950000	0.457393
36.000000	0.458130
36.050000	0.458707
36.100000	0.459255
36.150000	0.459647
36.200000	0.458707
36.250000	0.455511
36.300000	0.455006
36.350000	0.456175
36.400000	0.457337
36.450000	0.457862
36.500000	0.457818
36.550000	0.457836
36.600000	0.458342
36.650000	0.459144
36.700000	0.459865
36.750000	0.460408
36.800000	0.461050
36.850000	0.460150
36.900000	0.456891
36.950000	0.456402
37.000000	0.457547
37.050000	0.458934
37.100000	0.459561
37.150000	0.459584
37.200000	0.459571
37.250000	0.460045
37.300000	0.460894
37.350000	0.461428
37.400000	0.462005
37.450000	0.462420
37.500000	0.460959
37.550000	0.457752
37.600000	0.457385
37.650000	0.458510
37.700000	0.459829
37.750000	0.460436
37.800000	0.460314
37.850000	0.460358
37.900000	0.460751
37.950000	0.461444
38.000000	0.462106
38.050000	0.462550
38.100000	0.463022
38.150000	0.461715
38.200000	0.458393
38.250000	0.458087
38.300000	0.459228
38.350000	0.460551
38.400000	0.461377
38.450000	0.461339
38.500000	0.461372
38.550000	0.461914
38.600000	0.462619
38.650000	0.463154
38.700000	0.463644
38.750000	0.464019
38.800000	0.463154
38.850000	0.459703
38.900000	0.459021
38.950000	0.460105
39.000000	0.461383
39.050000	0.462046
39.100000	0.461983
39.150000	0.461979
39.200000	0.462391
39.250000	0.463059
39.300000	0.463678
39.350000	0.464193
39.400000	0.464746
39.450000	0.464559
39.500000	0.461391
39.550000	0.459845
39.600000	0.460748
39.650000	0.462135
39.700000	0.463001
39.750000	0.462896
39.800000	0.462796
39.850000	0.463104
39.900000	0.463763
39.950000	0.464320
40.000000	0.464944
40.050000	0.465339
40.100000	0.465396
40.150000	0.462359
40.200000	0.460533
40.250000	0.461245
40.300000	0.462698
40.350000	0.463644
40.400000	0.463598
40.450000	0.463425
40.500000	0.463761
40.550000	0.464359
40.600000	0.465031
40.650000	0.465477
40.700000	0.466041
40.750000	0.465461
40.800000	0.462105
40.850000	0.461053
40.900000	0.462147
40.950000	0.463545
41.000000	0.464217
41.050000	0.464192
41.100000	0.464013
41.150000	0.464539
41.200000	0.465201
41.250000	0.465713
41.300000	0.466317
41.350000	0.466679
41.400000	0.464735
41.450000	0.461650
41.500000	0.461598
41.550000	0.462945
41.600000	0.464057
41.650000	0.464495
41.700000	0.464304
41.750000	0.464271
41.800000	0.464925
41.850000	0.465567
41.900000	0.466176
41.950000	0.466594
42.000000	0.466793
42.050000	0.463987
42.100000	0.461514
42.150000	0.462023
42.200000	0.463280
42.250000	0.464402
42.300000	0.464588
42.350000	0.464514
42.400000	0.464745
42.450000	0.465329
42.500000	0.465912
42.550000	0.466431
42.600000	0.466893
42.650000	0.467100
42.700000	0.464614
42.750000	0.461828
42.800000	0.462028
42.850000	0.463146
42.900000	0.464134
42.950000	0.464529
43.000000	0.464317
43.050000	0.464491
43.100000	0.464966
43.150000	0.465537
43.200000	0.466186
43.250000	0.466644
43.300000	0.466967
43.350000	0.466090
43.400000	0.462494
43.450000	0.461777
43.500000	0.462632
43.550000	0.463806
43.600000	0.464533
43.650000	0.464503
43.700000	0.464461
43.750000	0.464915
43.800000	0.465509
43.850000	0.466053
43.900000	0.466458
43.950000	0.466883
44.000000	0.467267
44.050000	0.465321
44.100000	0.462153
44.150000	0.462154
44.200000	0.463326
44.250000	0.464485
44.300000	0.464903
44.350000	0.464772
44.400000	0.464747
44.450000	0.465389
44.500000	0.466090
44.550000	0.466533
44.600000	0.466978
44.650000	0.467414
44.700000	0.467699
44.750000	0.465137
44.800000	0.462581
44.850000	0.462906
44.900000	0.464334
44.950000	0.465387
45.000000	0.465656
45.050000	0.465329
45.100000	0.465535
45.150000	0.466213
45.200000	0.466898
45.250000	0.467412
45.300000	0.467945
45.350000	0.468296
45.400000	0.467653
45.450000	0.464377
45.500000	0.463521
45.550000	0.464758
45.600000	0.466078
45.650000	0.466748
45.700000	0.466507
45.750000	0.466378
45.800000	0.466825
45.850000	0.467388
45.900000	0.467948
45.950000	0.468369
46.000000	0.468877
46.050000	0.468407
46.100000	0.465094
46.150000	0.463648
46.200000	0.464566
46.250000	0.465740
46.300000	0.466518
46.350000	0.466532
46.400000	0.466366
46.450000	0.466708
46.500000	0.467404
46.550000	0.468012
46.600000	0.468520
46.650000	0.469027
46.700000	0.467815
46.750000	0.464471
46.800000	0.463900
46.850000	0.464947
46.900000	0.466071
46.950000	0.466844
47.000000	0.466630
47.050000	0.466489
47.100000	0.466881
47.150000	0.467499
47.200000	0.468067
47.250000	0.468427
47.300000	0.468804
47.350000	0.466337
47.400000	0.463569
47.450000	0.463784
47.500000	0.464809
47.550000	0.465853
47.600000	0.466330
47.650000	0.466077
47.700000	0.466088
47.750000	0.466638
47.800000	0.467181
47.850000	0.467661
47.900000	0.468097
47.950000	0.468377
48.000000	0.466033
48.050000	0.463208
48.100000	0.463357
48.150000	0.464304
48.200000	0.465494
48.250000	0.465974
48.300000	0.465802
48.350000	0.465888
48.400000	0.466426
48.450000	0.466994
48.500000	0.467508
48.550000	0.467886
48.600000	0.468291
48.650000	0.467803
48.700000	0.464326
48.750000	0.462838
48.800000	0.463517
48.850000	0.464677
48.900000	0.465380
48.950000	0.465453
49.000000	0.465333
49.050000	0.465741
49.100000	0.466404
49.150000	0.467054
49.200000	0.467491
49.250000	0.467847
49.300000	0.468274
49.350000	0.467272
49.400000	0.463819
49.450000	0.463200
49.500000	0.464215
49.550000	0.465426
49.600000	0.466153
49.650000	0.465994
49.700000	0.465953
49.750000	0.466466
49.800000	0.467153
49.850000	0.467895
49.900000	0.468149
49.950000	0.468469
50.000000	0.468924
50.050000	0.467016
50.100000	0.464040
50.150000	0.464282
50.200000	0.465273
50.250000	0.466429
50.300000	0.466844
50.350000	0.466621
50.400000	0.466697
50.450000	0.467351
50.500000	0.468001
50.550000	0.468604
50.600000	0.469092
50.650000	0.469571
50.700000	0.469358
50.750000	0.466140
50.800000	0.464550
50.850000	0.465235
50.900000	0.466287
50.950000	0.467274
51.000000	0.467204
51.050000	0.467031
51.100000	0.467371
51.150000	0.468250
51.200000	0.468952
51.250000	0.469421
51.300000	0.469963
51.350000	0.470236
51.400000	0.467890
51.450000	0.465159
51.500000	0.465430
51.550000	0.466520
51.600000	0.467633
51.650000	0.468046
51.700000	0.467970
51.750000	0.468048
51.800000	0.468653
51.850000	0.469435
51.900000	0.470147
51.950000	0.470565
52.000000	0.470971
52.050000	0.470576
52.100000	0.467029
52.150000	0.465781
52.200000	0.466656
52.250000	0.467832
52.300000	0.468700
52.350000	0.468878
52.400000	0.468717
52.450000	0.469174
52.500000	0.470018
52.550000	0.470804
52.600000	0.471423
52.650000	0.471758
52.700000	0.472095
52.750000	0.470024
52.800000	0.466902
52.850000	0.466857
52.900000	0.467890
52.950000	0.468895
53.000000	0.469391
53.050000	0.469154
53.100000	0.469274
53.150000	0.469903
53.200000	0.470574
53.250000	0.471230
53.300000	0.471567
53.350000	0.472159
53.400000	0.472140
53.450000	0.469020
53.500000	0.466725
53.550000	0.467354
53.600000	0.468463
53.650000	0.469487
53.700000	0.469703
53.750000	0.469406
53.800000	0.469749
53.850000	0.470530
53.900000	0.471151
53.950000	0.471924
54.000000	0.472345
54.050000	0.472767
54.100000	0.471925
54.150000	0.468408
54.200000	0.467784
54.250000	0.468778
54.300000	0.470068
54.350000	0.470765
54.400000	0.470669
54.450000	0.470618
54.500000	0.471044
54.550000	0.471870
54.600000	0.472514
54.650000	0.473025
54.700000	0.473541
54.750000	0.473289
54.800000	0.469990
54.850000	0.468614
54.900000	0.469537
54.950000	0.470531
55.000000	0.471440
55.050000	0.471503
55.100000	0.471356
55.150000	0.471892
55.200000	0.472544
55.250000	0.473259
55.300000	0.473805
55.350000	0.474200
55.400000	0.473734
55.450000	0.470213
55.500000	0.468915
55.550000	0.469908
55.600000	0.471104
55.650000	0.471885
55.700000	0.471966
55.750000	0.471719
55.800000	0.472157
55.850000	0.472910
55.900000	0.473565
55.950000	0.474120
56.000000	0.474419
56.050000	0.472731
56.100000	0.469391
56.150000	0.469055
56.200000	0.470182
56.250000	0.471339
56.300000	0.472051
56.350000	0.471937
56.400000	0.471969
56.450000	0.472604
56.500000	0.473139
56.550000	0.473782
56.600000	0.474230
56.650000	0.474373
56.700000	0.471772
56.750000	0.468772
56.800000	0.468932
56.850000	0.469769
56.900000	0.471043
56.950000	0.471418
57.000000	0.471354
57.050000	0.471489
57.100000	0.471976
57.150000	0.472715
57.200000	0.473214
57.250000	0.473541
57.300000	0.473830
57.350000	0.472698
57.400000	0.468924
57.450000	0.468134
57.500000	0.469024
57.550000	0.470238
57.600000	0.471248
57.650000	0.471373
57.700000	0.471293
57.750000	0.471777
57.800000	0.472467
57.850000	0.473087
57.900000	0.473721
57.950000	0.474046
58.000000	0.474316
58.050000	0.473182
58.100000	0.469546
58.150000	0.468885
58.200000	0.470040
58.250000	0.471217
58.300000	0.472141
58.350000	0.472003
58.400000	0.472111
58.450000	0.472642
58.500000	0.473305
58.550000	0.473968
58.600000	0.474512
58.650000	0.474767
58.700000	0.475240
58.750000	0.474699
58.800000	0.471192
58.850000	0.469805
58.900000	0.470700
58.950000	0.472063
59.000000	0.472973
59.050000	0.473070
59.100000	0.473013
59.150000	0.473573
59.200000	0.474246
59.250000	0.475047
59.300000	0.475597
59.350000	0.475851
59.400000	0.476425
59.450000	0.476153
59.500000	0.472960
59.550000	0.471534
59.600000	0.472457
59.650000	0.473688
59.700000	0.474606
59.750000	0.474602
59.800000	0.474482
59.850000	0.474953
59.900000	0.475622
59.950000	0.476311
60.000000	0.476927
60.050000	0.477132
60.100000	0.477653
60.150000	0.476129
60.200000	0.472827
60.250000	0.472613
60.300000	0.473730
60.350000	0.475068
60.400000	0.475451
60.450000	0.475331
60.500000	0.475203
60.550000	0.475735
60.600000	0.476406
60.650000	0.476886
60.700000	0.477323
60.750000	0.477679
60.800000	0.476494
60.850000	0.473017
60.900000	0.472327
60.950000	0.473520
61.000000	0.474692
61.050000	0.475512
61.100000	0.475325
61.150000	0.475260
61.200000	0.475641
61.250000	0.476467
61.300000	0.477018
61.350000	0.477549
61.400000	0.478006
61.450000	0.476490
61.500000	0.472957
61.550000	0.472633
61.600000	0.473549
61.650000	0.474765
61.700000	0.475432
61.750000	0.475245
61.800000	0.475232
61.850000	0.475772
61.900000	0.476386
61.950000	0.477041
62.000000	0.477418
62.050000	0.477844
62.100000	0.476176
62.150000	0.472647
62.200000	0.472424
62.250000	0.473341
62.300000	0.474520
62.350000	0.475227
62.400000	0.475233
62.450000	0.475121
62.500000	0.475580
62.550000	0.476282
62.600000	0.476858
62.650000	0.477268
62.700000	0.477663
62.750000	0.477238
62.800000	0.473588
62.850000	0.472058
62.900000	0.472869
62.950000	0.473995
63.000000	0.475037
63.050000	0.475353
63.100000	0.475160
63.150000	0.475541
63.200000	0.476092
63.250000	0.476754
63.300000	0.477335
63.350000	0.477561
63.400000	0.477858
63.450000	0.476324
63.500000	0.472672
63.550000	0.472490
63.600000	0.473555
63.650000	0.474665
63.700000	0.475348
63.750000	0.475271
63.800000	0.475366
63.850000	0.475815
63.900000	0.476468
63.950000	0.477214
64.000000	0.477446
64.050000	0.477885
64.100000	0.478102
64.150000	0.475370
64.200000	0.472908
64.250000	0.473402
64.300000	0.474654
64.350000	0.475717
64.400000	0.475960
64.450000	0.475665
64.500000	0.475922
64.550000	0.476664
64.600000	0.477369
64.650000	0.477805
64.700000	0.478139
64.750000	0.478658
64.800000	0.477609
64.850000	0.474095
64.900000	0.473481
64.950000	0.474414
65.000000	0.475589
65.050000	0.476297
65.100000	0.476207
65.150000	0.475922
65.200000	0.476516
65.250000	0.477203
65.300000	0.477812
65.350000	0.478206
65.400000	0.478701
65.450000	0.478615
65.500000	0.475409
65.550000	0.473635
65.600000	0.474567
65.650000	0.475585
65.700000	0.476683
65.750000	0.476724
65.800000	0.476557
65.850000	0.476899
65.900000	0.477568
65.950000	0.478372
66.000000	0.478941
66.050000	0.479326
66.100000	0.479629
66.150000	0.477180
66.200000	0.474357
66.250000	0.474645
66.300000	0.475911
66.350000	0.477015
66.400000	0.477576
66.450000	0.477367
66.500000	0.477492
66.550000	0.478160
66.600000	0.478863
66.650000	0.479439
66.700000	0.479836
66.750000	0.480207
66.800000	0.479658
66.850000	0.475925
66.900000	0.474686
66.950000	0.475554
67.000000	0.476777
67.050000	0.477787
67.100000	0.477845
67.150000	0.477745
67.200000	0.477977
67.250000	0.478729
67.300000	0.479376
67.350000	0.479821
67.400000	0.480098
67.450000	0.480560
67.500000	0.478502
67.550000	0.475211
67.600000	0.475207
67.650000	0.476446
67.700000	0.477580
67.750000	0.478160
67.800000	0.477996
67.850000	0.478193
67.900000	0.478759
67.950000	0.479433
68.000000	0.480086
68.050000	0.480484
68.100000	0.480849
68.150000	0.480822
68.200000	0.477489
68.250000	0.475655
68.300000	0.476534
68.350000	0.477931
68.400000	0.478683
68.450000	0.478833
68.500000	0.478548
68.550000	0.478900
68.600000	0.479510
68.650000	0.480303
68.700000	0.480706
68.750000	0.481173
68.800000	0.481509
68.850000	0.479573
68.900000	0.476493
68.950000	0.476513
69.000000	0.478000
69.050000	0.479185
69.100000	0.479546
69.150000	0.479330
69.200000	0.479449
69.250000	0.480017
69.300000	0.480725
69.350000	0.481196
69.400000	0.481566
69.450000	0.481824
69.500000	0.480033
69.550000	0.476784
69.600000	0.476888
69.650000	0.478068
69.700000	0.479341
69.750000	0.479692
69.800000	0.479411
69.850000	0.479446
69.900000	0.480122
69.950000	0.480802
70.000000	0.481245
70.050000	0.481880
70.100000	0.481901
70.150000	0.478894
70.200000	0.476495
70.250000	0.477146
70.300000	0.478312
70.350000	0.479329
70.400000	0.479435
70.450000	0.479003
70.500000	0.479232
70.550000	0.479814
70.600000	0.480318
70.650000	0.480852
70.700000	0.481224
70.750000	0.480184
70.800000	0.476621
70.850000	0.475866
70.900000	0.476936
70.950000	0.478152
71.000000	0.478882
71.050000	0.478751
71.100000	0.478732
71.150000	0.479157
71.200000	0.479926
71.250000	0.480407
71.300000	0.480867
71.350000	0.481218
71.400000	0.479168
71.450000	0.475811
71.500000	0.475615
71.550000	0.476655
71.600000	0.477735
71.650000	0.478370
71.700000	0.478091
71.750000	0.478126
71.800000	0.478680
71.850000	0.479424
71.900000	0.479994
71.950000	0.480362
72.000000	0.480736
72.050000	0.478916
72.100000	0.475430
72.150000	0.475045
72.200000	0.476097
72.250000	0.477251
72.300000	0.477930
72.350000	0.477702
72.400000	0.477671
72.450000	0.478227
72.500000	0.478997
72.550000	0.479595
72.600000	0.480057
72.650000	0.480343
72.700000	0.480264
72.750000	0.476965
72.800000	0.474916
72.850000	0.475610
72.900000	0.476886
72.950000	0.477865
73.000000	0.477894
73.050000	0.477750
73.100000	0.478085
73.150000	0.478715
73.200000	0.479452
73.250000	0.479851
73.300000	0.480256
73.350000	0.480733
73.400000	0.480239
73.450000	0.476744
73.500000	0.475476
73.550000	0.476571
73.600000	0.477790
73.650000	0.478501
73.700000	0.478358
73.750000	0.478197
73.800000	0.478615
73.850000	0.479430
73.900000	0.480063
73.950000	0.480498
74.000000	0.481054
74.050000	0.481268
74.100000	0.478742
74.150000	0.476236
74.200000	0.476701
74.250000	0.478018
74.300000	0.479104
74.350000	0.479133
74.400000	0.478733
74.450000	0.478902
74.500000	0.479551
74.550000	0.480302
74.600000	0.480846
74.650000	0.481308
74.700000	0.481584
74.750000	0.479090
74.800000	0.476429
74.850000	0.476662
74.900000	0.477934
74.950000	0.478999
75.000000	0.479202
75.050000	0.478829
75.100000	0.478952
75.150000	0.479480
75.200000	0.480079
75.250000	0.480680
75.300000	0.481275
75.350000	0.481084
75.400000	0.477705
75.450000	0.475858
75.500000	0.476721
75.550000	0.477866
75.600000	0.478788
75.650000	0.478728
75.700000	0.478536
75.750000	0.478754
75.800000	0.479475
75.850000	0.480193
75.900000	0.480684
75.950000	0.481037
76.000000	0.480147
76.050000	0.476534
76.100000	0.475305
76.150000	0.476018
76.200000	0.477167
76.250000	0.477938
76.300000	0.477829
76.350000	0.477563
76.400000	0.478032
76.450000	0.478772
76.500000	0.479423
76.550000	0.479858
76.600000	0.480243
76.650000	0.479884
76.700000	0.476323
76.750000	0.474638
76.800000	0.475378
76.850000	0.476586
76.900000	0.477539
76.950000	0.477555
77.000000	0.477343
77.050000	0.477726
77.100000	0.478427
77.150000	0.479077
77.200000	0.479676
77.250000	0.479907
77.300000	0.480017
77.350000	0.476767
77.400000	0.474441
77.450000	0.474954
77.500000	0.476173
77.550000	0.477139
77.600000	0.477403
77.650000	0.477116
77.700000	0.477437
77.750000	0.478175
77.800000	0.478947
77.850000	0.479420
77.900000	0.479883
77.950000	0.480279
78.000000	0.478879
78.050000	0.475363
78.100000	0.474935
78.150000	0.476102
78.200000	0.477225
78.250000	0.477723
78.300000	0.477551
78.350000	0.477526
78.400000	0.478072
78.450000	0.478825
78.500000	0.479544
78.550000	0.479957
78.600000	0.480327
78.650000	0.480454
78.700000	0.477480
78.750000	0.475223
78.800000	0.475917
78.850000	0.477144
78.900000	0.478101
78.950000	0.478168
79.000000	0.477840
79.050000	0.478142
79.100000	0.478750
79.150000	0.479500
79.200000	0.479946
79.250000	0.480348
79.300000	0.480748
79.350000	0.478974
79.400000	0.475783
79.450000	0.475717
79.500000	0.476896
79.550000	0.477893
79.600000	0.477996
79.650000	0.477713
79.700000	0.477754
79.750000	0.478344
79.800000	0.479149
79.850000	0.479728
79.900000	0.480148
79.950000	0.480546
80.000000	0.478802
80.050000	0.475519
80.100000	0.475368
80.150000	0.476533
80.200000	0.477762
80.250000	0.478224
80.300000	0.478041
80.350000	0.478038
80.400000	0.478687
80.450000	0.479326
80.500000	0.480011
80.550000	0.480501
80.600000	0.480910
80.650000	0.478720
80.700000	0.475539
80.750000	0.475508
80.800000	0.476695
80.850000	0.477905
80.900000	0.478399
80.950000	0.478152
81.000000	0.478181
81.050000	0.478870
81.100000	0.479558
81.150000	0.480119
81.200000	0.480559
81.250000	0.480886
81.300000	0.479362
81.350000	0.475725
81.400000	0.475132
81.450000	0.476242
81.500000	0.477291
81.550000	0.477978
81.600000	0.477868
81.650000	0.477871
81.700000	0.478374
81.750000	0.479169
81.800000	0.479762
81.850000	0.480263
81.900000	0.480750
81.950000	0.480545
82.000000	0.477025
82.050000	0.475098
82.100000	0.475710
82.150000	0.476985
82.200000	0.478016
82.250000	0.478074
82.300000	0.478025
82.350000	0.478372
82.400000	0.479062
82.450000	0.479792
82.500000	0.480412
82.550000	0.480851
82.600000	0.481245
82.650000	0.480529
82.700000	0.476990
82.750000	0.475820
82.800000	0.476885
82.850000	0.478054
82.900000	0.478929
82.950000	0.478846
83.000000	0.478668
83.050000	0.479212
83.100000	0.479894
83.150000	0.480689
83.200000	0.481188
83.250000	0.481442
83.300000	0.481802
83.350000	0.481007
83.400000	0.477308
83.450000	0.476509
83.500000	0.477660
83.550000	0.478811
83.600000	0.479414
83.650000	0.479217
83.700000	0.479262
83.750000	0.479793
83.800000	0.480472
83.850000	0.481277
83.900000	0.481649
83.950000	0.482186
84.000000	0.482340
84.050000	0.479649
84.100000	0.477246
84.150000	0.477656
84.200000	0.479173
84.250000	0.480111
84.300000	0.480276
84.350000	0.480024
84.400000	0.480353
84.450000	0.481127
84.500000	0.481858
84.550000	0.482411
84.600000	0.482711
84.650000	0.482999
84.700000	0.480515
84.750000	0.477620
84.800000	0.477773
84.850000	0.478995
84.900000	0.480012
84.950000	0.480271
85.000000	0.479822
85.050000	0.479962
85.100000	0.480658
85.150000	0.481318
85.200000	0.481763
85.250000	0.482255
85.300000	0.481930
85.350000	0.478599
85.400000	0.476516
85.450000	0.477173
85.500000	0.478160
85.550000	0.479003
85.600000	0.479019
85.650000	0.478747
85.700000	0.479094
85.750000	0.479811
85.800000	0.480332
85.850000	0.480917
85.900000	0.481331
85.950000	0.480634
86.000000	0.476799
86.050000	0.475299
86.100000	0.476113
86.150000	0.477067
86.200000	0.477813
86.250000	0.477801
86.300000	0.477655
86.350000	0.478065
86.400000	0.478717
86.450000	0.479353
86.500000	0.479883
86.550000	0.480299
86.600000	0.480201
86.650000	0.476772
86.700000	0.474523
86.750000	0.475028
86.800000	0.475955
86.850000	0.477079
86.900000	0.477273
86.950000	0.477077
87.000000	0.477324
87.050000	0.477915
87.100000	0.478471
87.150000	0.479124
87.200000	0.479419
87.250000	0.479889
87.300000	0.478576
87.350000	0.474852
87.400000	0.474156
87.450000	0.475206
87.500000	0.476225
87.550000	0.477022
87.600000	0.476983
87.650000	0.476961
87.700000	0.477438
87.750000	0.478156
87.800000	0.478697
87.850000	0.479281
87.900000	0.479535
87.950000	0.479972
88.000000	0.478296
88.050000	0.474861
88.100000	0.474701
88.150000	0.475714
88.200000	0.476765
88.250000	0.477408
88.300000	0.477239
88.350000	0.477413
88.400000	0.477958
88.450000	0.478819
88.500000	0.479491
88.550000	0.479979
88.600000	0.480324
88.650000	0.480663
88.700000	0.479454
88.750000	0.475896
88.800000	0.475289
88.850000	0.476482
88.900000	0.477643
88.950000	0.478178
89.000000	0.477957
89.050000	0.477914
89.100000	0.478458
89.150000	0.479345
89.200000	0.479944
89.250000	0.480435
89.300000	0.480916
89.350000	0.481126
89.400000	0.479006
89.450000	0.476182
89.500000	0.476225
89.550000	0.477596
89.600000	0.478708
89.650000	0.479086
89.700000	0.478693
89.750000	0.478862
89.800000	0.479471
89.850000	0.480310
89.900000	0.480928
89.950000	0.481536
90.000000	0.481979
90.050000	0.480952
90.100000	0.477445
90.150000	0.476580
90.200000	0.477700
90.250000	0.479034
90.300000	0.479633
90.350000	0.479507
90.400000	0.479386
90.450000	0.479919
90.500000	0.480595
90.550000	0.481203
90.600000	0.481748
90.650000	0.482244
90.700000	0.480994
90.750000	0.477423
90.800000	0.476865
90.850000	0.478023
90.900000	0.479288
90.950000	0.479923
91.000000	0.479705
91.050000	0.479670
91.100000	0.480207
91.150000	0.481001
91.200000	0.481606
91.250000	0.482194
91.300000	0.482650
91.350000	0.480417
91.400000	0.477134
91.450000	0.477130
91.500000	0.478299
91.550000	0.479386
91.600000	0.480086
91.650000	0.479718
91.700000	0.479726
91.750000	0.480378
91.800000	0.481103
91.850000	0.481592
91.900000	0.482014
91.950000	0.482180
92.000000	0.479156
92.050000	0.476517
92.100000	0.477077
92.150000	0.478229
92.200000	0.479302
92.250000	0.479789
92.300000	0.479453
92.350000	0.479791
92.400000	0.480300
92.450000	0.481071
92.500000	0.481651
92.550000	0.482026
92.600000	0.482052
92.650000	0.478805
92.700000	0.476427
92.750000	0.477016
92.800000	0.478288
92.850000	0.479416
92.900000	0.479564
92.950000	0.479359
93.000000	0.479498
93.050000	0.480198
93.100000	0.480873
93.150000	0.481458
93.200000	0.481858
93.250000	0.482015
93.300000	0.479126
93.350000	0.476562
93.400000	0.477018
93.450000	0.478386
93.500000	0.479538
93.550000	0.479673
93.600000	0.479594
93.650000	0.479704
93.700000	0.480322
93.750000	0.481040
93.800000	0.481575
93.850000	0.482016
93.900000	0.482264
93.950000	0.479674
94.000000	0.476945
94.050000	0.477332
94.100000	0.478739
94.150000	0.479851
94.200000	0.480034
94.250000	0.479668
94.300000	0.479958
94.350000	0.480631
94.400000	0.481329
94.450000	0.481803
94.500000	0.482233
94.550000	0.482387
94.600000	0.479436
94.650000	0.476984
94.700000	0.477559
94.750000	0.478944
94.800000	0.479997
94.850000	0.480039
94.900000	0.479770
94.950000	0.479940
95.000000	0.480537
95.050000	0.481260
95.100000	0.481758
95.150000	0.482028
95.200000	0.481907
95.250000	0.478604
95.300000	0.476582
95.350000	0.477432
95.400000	0.478632
95.450000	0.479575
95.500000	0.479489
95.550000	0.479323
95.600000	0.479827
95.650000	0.480502
95.700000	0.481143
95.750000	0.481748
95.800000	0.482236
95.850000	0.481924
95.900000	0.478483
95.950000	0.476594
96.000000	0.477418
96.050000	0.478634
96.100000	0.479671
96.150000	0.479817
96.200000	0.479550
96.250000	0.479951
96.300000	0.480659
96.350000	0.481391
96.400000	0.481919
96.450000	0.482213
96.500000	0.482495
96.550000	0.479848
96.600000	0.476838
96.650000	0.477089
96.700000	0.478302
96.750000	0.479408
96.800000	0.479914
96.850000	0.479594
96.900000	0.479894
96.950000	0.480326
97.000000	0.481071
97.050000	0.481367
97.100000	0.481703
97.150000	0.482139
97.200000	0.481670
97.250000	0.478193
97.300000	0.476685
97.350000	0.477671
97.400000	0.478763
97.450000	0.479787
97.500000	0.479701
97.550000	0.479620
97.600000	0.480138
97.650000	0.480798
97.700000	0.481509
97.750000	0.482160
97.800000	0.482624
97.850000	0.482995
97.900000	0.482002
97.950000	0.478395
98.000000	0.477742
98.050000	0.479016
98.100000	0.480326
98.150000	0.480922
98.200000	0.480678
98.250000	0.480608
98.300000	0.481084
98.350000	0.481906
98.400000	0.482522
98.450000	0.482966
98.500000	0.483383
98.550000	0.483567
98.600000	0.480937
98.650000	0.478364
98.700000	0.478921
98.750000	0.480197
98.800000	0.481334
98.850000	0.481478
98.900000	0.481186
98.950000	0.481284
99.000000	0.482078
99.050000	0.482840
99.100000	0.483464
99.150000	0.484053
99.200000	0.484296
99.250000	0.481979
99.300000	0.478997
99.350000	0.479220
99.400000	0.480547
99.450000	0.481799
99.500000	0.481966
99.550000	0.481652
99.600000	0.481702
99.650000	0.482466
99.700000	0.483289
99.750000	0.483942
99.800000	0.484558
99.850000	0.484750
99.900000	0.482282
99.950000	0.479278
100.000000	0.479615
100.050000	0.480831
100.100000	0.482000
100.150000	0.482261
100.200000	0.481970
100.250000	0.482048
100.300000	0.482764
100.350000	0.483472
100.400000	0.484015
100.450000	0.484468
100.500000	0.484583
100.550000	0.481645
100.600000	0.478941
100.650000	0.479476
100.700000	0.480563
100.750000	0.481673
100.800000	0.481842
100.850000	0.481594
100.900000	0.481831
100.950000	0.482436
101.000000	0.483091
101.050000	0.483632
101.100000	0.484045
101.150000	0.483721
101.200000	0.480323
101.250000	0.478244
101.300000	0.479061
101.350000	0.480340
101.400000	0.481139
101.450000	0.481146
101.500000	0.480859
101.550000	0.481246
101.600000	0.481977
101.650000	0.482649
101.700000	0.483093
101.750000	0.483578
101.800000	0.482572
101.850000	0.478861
101.900000	0.477932
101.950000	0.478926
102.000000	0.480068
102.050000	0.480746
102.100000	0.480536
102.150000	0.480460
102.200000	0.480929
102.250000	0.481646
102.300000	0.482164
102.350000	0.482568
102.400000	0.482909
102.450000	0.481011
102.500000	0.477657
102.550000	0.477470
102.600000	0.478598
102.650000	0.479751
102.700000	0.480213
102.750000	0.479969
102.800000	0.480024
102.850000	0.480720
102.900000	0.481334
102.950000	0.481787
103.000000	0.482157
103.050000	0.482479
103.100000	0.479660
103.150000	0.476766
103.200000	0.477169
103.250000	0.478201
103.300000	0.479127
103.350000	0.479358
103.400000	0.478943
103.450000	0.479195
103.500000	0.479889
103.550000	0.480616
103.600000	0.480997
103.650000	0.481413
103.700000	0.481486
103.750000	0.478568
103.800000	0.476027
103.850000	0.476555
103.900000	0.477673
103.950000	0.478739
104.000000	0.479064
104.050000	0.478749
104.100000	0.479058
104.150000	0.479723
104.200000	0.480583
104.250000	0.481012
104.300000	0.481465
104.350000	0.481781
104.400000	0.480471
104.450000	0.476591
104.500000	0.475898
104.550000	0.476843
104.600000	0.478003
104.650000	0.478648
104.700000	0.478547
104.750000	0.478521
104.800000	0.479134
104.850000	0.479935
104.900000	0.480592
104.950000	0.481206
105.000000	0.481432
105.050000	0.481902
105.100000	0.480613
105.150000	0.476890
105.200000	0.476381
105.250000	0.477438
105.300000	0.478590
105.350000	0.479248
105.400000	0.479023
105.450000	0.479034
105.500000	0.479663
105.550000	0.480379
105.600000	0.481068
105.650000	0.481427
105.700000	0.481861
105.750000	0.482202
105.800000	0.481440
105.850000	0.477663
105.900000	0.476671
105.950000	0.477780
106.000000	0.479096
106.050000	0.479830
106.100000	0.479661
106.150000	0.479598
106.200000	0.480175
106.250000	0.481013
106.300000	0.481734
106.350000	0.482345
106.400000	0.482687
106.450000	0.483059
106.500000	0.482783
106.550000	0.479232
106.600000	0.477742
106.650000	0.478765
106.700000	0.480091
106.750000	0.480922
106.800000	0.480813
106.850000	0.480719
106.900000	0.481100
106.950000	0.481870
107.000000	0.482728
107.050000	0.483318
107.100000	0.483639
107.150000	0.484159
107.200000	0.483301
107.250000	0.479751
107.300000	0.478770
107.350000	0.479901
107.400000	0.481192
107.450000	0.481758
107.500000	0.481600
107.550000	0.481442
107.600000	0.481815
107.650000	0.482615
107.700000	0.483288
107.750000	0.483834
107.800000	0.484283
107.850000	0.484214
107.900000	0.480844
107.950000	0.478870
108.000000	0.479652
108.050000	0.481027
108.100000	0.482020
108.150000	0.481979
108.200000	0.481673
108.250000	0.481933
108.300000	0.482858
108.350000	0.483698
108.400000	0.484221
108.450000	0.484694
108.500000	0.483902
108.550000	0.480192
108.600000	0.479014
108.650000	0.480143
108.700000	0.481414
108.750000	0.482325
108.800000	0.482127
108.850000	0.482009
108.900000	0.482457
108.950000	0.483096
109.000000	0.483800
109.050000	0.484320
109.100000	0.484679
109.150000	0.482423
109.200000	0.479081
109.250000	0.478638
109.300000	0.479624
109.350000	0.480798
109.400000	0.481481
109.450000	0.481201
109.500000	0.481312
109.550000	0.481911
109.600000	0.482671
109.650000	0.483300
109.700000	0.483830
109.750000	0.483901
109.800000	0.480559
109.850000	0.478050
109.900000	0.478646
109.950000	0.479808
110.000000	0.480887
110.050000	0.481112
110.100000	0.480781
110.150000	0.481074
110.200000	0.481713
110.250000	0.482499
110.300000	0.482996
110.350000	0.483461
110.400000	0.483374
110.450000	0.480137
110.500000	0.477718
110.550000	0.478341
110.600000	0.479637
110.650000	0.480567
110.700000	0.480689
110.750000	0.480376
110.800000	0.480804
110.850000	0.481505
110.900000	0.482194
110.950000	0.482747
111.000000	0.483140
111.050000	0.483549
111.100000	0.481265
111.150000	0.478051
111.200000	0.478282
111.250000	0.479510
111.300000	0.480524
111.350000	0.480969
111.400000	0.480452
111.450000	0.480633
111.500000	0.481278
111.550000	0.482036
111.600000	0.482569
111.650000	0.483071
111.700000	0.483472
111.750000	0.482375
111.800000	0.478712
111.850000	0.478004
111.900000	0.479086
111.950000	0.480240
112.000000	0.480831
112.050000	0.480515
112.100000	0.480467
112.150000	0.481051
112.200000	0.481616
112.250000	0.482146
112.300000	0.482732
112.350000	0.483108
112.400000	0.482390
112.450000	0.478699
112.500000	0.477608
112.550000	0.478598
112.600000	0.479756
112.650000	0.480613
112.700000	0.480378
112.750000	0.480290
112.800000	0.480788
112.850000	0.481576
112.900000	0.482231
112.950000	0.482809
113.000000	0.483172
113.050000	0.483083
113.100000	0.479619
113.150000	0.477605
113.200000	0.478364
113.250000	0.479438
113.300000	0.480712
113.350000	0.480819
113.400000	0.480549
113.450000	0.480939
113.500000	0.481788
113.550000	0.482656
113.600000	0.483196
113.650000	0.483737
113.700000	0.483983
113.750000	0.481026
113.800000	0.478254
113.850000	0.478661
113.900000	0.479861
113.950000	0.480974
114.000000	0.481335
114.050000	0.481061
114.100000	0.481181
114.150000	0.481906
114.200000	0.482587
114.250000	0.483235
114.300000	0.483643
114.350000	0.484025
114.400000	0.482174
114.450000	0.478514
114.500000	0.478279
114.550000	0.479411
114.600000	0.480625
114.650000	0.481337
114.700000	0.480966
114.750000	0.481031
114.800000	0.481645
114.850000	0.482405
114.900000	0.483123
114.950000	0.483573
115.000000	0.484061
115.050000	0.483288
115.100000	0.479444
115.150000	0.478491
115.200000	0.479593
115.250000	0.480941
115.300000	0.481687
115.350000	0.481384
115.400000	0.481289
115.450000	0.481717
115.500000	0.482376
115.550000	0.483081
115.600000	0.483587
115.650000	0.483986
115.700000	0.483772
115.750000	0.480096
115.800000	0.478533
115.850000	0.479362
115.900000	0.480831
115.950000	0.481634
116.000000	0.481459
116.050000	0.481212
116.100000	0.481545
116.150000	0.482367
116.200000	0.483066
116.250000	0.483637
116.300000	0.484006
116.350000	0.483156
116.400000	0.479498
116.450000	0.478619
116.500000	0.479777
116.550000	0.481129
116.600000	0.481744
116.650000	0.481532
116.700000	0.481467
116.750000	0.481971
116.800000	0.482762
116.850000	0.483515
116.900000	0.483870
116.950000	0.483893
117.000000	0.480702
117.050000	0.478174
117.100000	0.478713
117.150000	0.479858
117.200000	0.480911
117.250000	0.480832
117.300000	0.480458
117.350000	0.480687
117.400000	0.481392
117.450000	0.481897
117.500000	0.482570
117.550000	0.482692
117.600000	0.479905
117.650000	0.476961
117.700000	0.477310
117.750000	0.478499
117.800000	0.479660
117.850000	0.479805
117.900000	0.479418
117.950000	0.479762
118.000000	0.480308
118.050000	0.481082
118.100000	0.481718
118.150000	0.482087
118.200000	0.480551
118.250000	0.476784
118.300000	0.476277
118.350000	0.477247
118.400000	0.478572
118.450000	0.479222
118.500000	0.478858
118.550000	0.478979
118.600000	0.479732
118.650000	0.480466
118.700000	0.481156
118.750000	0.481660
118.800000	0.482035
118.850000	0.479532
118.900000	0.476372
118.950000	0.476462
119.000000	0.477637
119.050000	0.478774
119.100000	0.479315
119.150000	0.479052
119.200000	0.479328
119.250000	0.480086
119.300000	0.480804
119.350000	0.481432
119.400000	0.481921
119.450000	0.482276
119.500000	0.481026
119.550000	0.477227
119.600000	0.476554
119.650000	0.477660
119.700000	0.478885
119.750000	0.479636
119.800000	0.479503
119.850000	0.479544
119.900000	0.480148
119.950000	0.480888
120.000000	0.481588
120.050000	0.482003
120.100000	0.482416
120.150000	0.482816
120.200000	0.480912
120.250000	0.477472
120.300000	0.477456
120.350000	0.478814
120.400000	0.480211
120.450000	0.480563
120.500000	0.480285
120.550000	0.480578
120.600000	0.481096
120.650000	0.481937
120.700000	0.482442
120.750000	0.482797
120.800000	0.483232
120.850000	0.483252
120.900000	0.480162
120.950000	0.478020
121.000000	0.478785
121.050000	0.480111
121.100000	0.481244
121.150000	0.481273
121.200000	0.480977
121.250000	0.481476
121.300000	0.482263
121.350000	0.483024
121.400000	0.483522
121.450000	0.483968
121.500000	0.484365
121.550000	0.482508
121.600000	0.479207
121.650000	0.479198
121.700000	0.480359
121.750000	0.481665
121.800000	0.482098
121.850000	0.481838
121.900000	0.481883
121.950000	0.482721
122.000000	0.483375
122.050000	0.484133
122.100000	0.484578
122.150000	0.485044
122.200000	0.483289
122.250000	0.479925
122.300000	0.479699
122.350000	0.481054
122.400000	0.482306
122.450000	0.482943
122.500000	0.482636
122.550000	0.482692
122.600000	0.483358
122.650000	0.484158
122.700000	0.484735
122.750000	0.485197
122.800000	0.485603
122.850000	0.483927
122.900000	0.480314
122.950000	0.479954
123.000000	0.481162
123.050000	0.482321
123.100000	0.483042
123.150000	0.482648
123.200000	0.481775
123.250000	0.481431
123.300000	0.482065
123.350000	0.482321
123.400000	0.483027
123.450000	0.482700
123.500000	0.477940
123.550000	0.463151
123.600000	0.433699
123.650000	0.390843
123.700000	0.349502
123.750000	0.320766
123.800000	0.280661
123.850000	0.239823
123.900000	0.215524
123.950000	0.162001
124.000000	0.184830
124.050000	0.860285
124.100000	0.513359
124.150000	0.317102
124.200000	0.178190
124.250000	0.093653
124.300000	0.046645
124.350000	0.030598
124.400000	0.017004
124.450000	0.008983
124.500000	0.007497
124.550000	0.001101
124.600000	0.000839
124.650000	0.000802
124.700000	0.000820
124.750000	0.000910
124.800000	0.000892
124.850000	0.000747
124.900000	0.000751
124.950000	0.000860
125.000000	0.000775
125.050000	0.000717
125.100000	0.000697
125.150000	0.000669
125.200000	0.000693
125.250000	0.000713
125.300000	0.000731
125.350000	0.000729
125.400000	0.000720
125.450000	0.000726
125.500000	0.000730
125.550000	0.000736
125.600000	0.000732
125.650000	0.000720
125.700000	0.000729
125.750000	0.000738
125.800000	0.000726
125.850000	0.000726
125.900000	0.000727
125.950000	0.000723
126.000000	0.000733
126.050000	0.000727
126.100000	0.000726
126.150000	0.000721
126.200000	0.000718
126.250000	0.000713
