0.000000	0.054288
0.050000	0.054328
0.100000	0.054183
0.150000	0.053218
0.200000	0.051938
0.250000	0.050822
0.300000	0.050135
0.350000	0.049202
0.400000	0.051252
0.450000	0.063408
0.500000	0.069529
0.550000	0.066600
0.600000	0.075563
0.650000	0.077895
0.700000	0.086284
0.750000	0.097625
0.800000	0.114930
0.850000	0.148451
0.900000	0.205838
0.950000	0.310355
1.000000	0.677606
1.050000	1.067985
1.100000	1.374834
1.150000	1.820470
1.200000	2.046960
1.250000	1.003297
1.300000	0.306017
1.350000	0.065648
1.400000	0.054101
1.450000	0.053538
1.500000	0.047543
1.550000	0.042053
1.600000	0.040670
1.650000	0.040032
1.700000	0.039116
1.750000	0.038701
1.800000	0.038333
1.850000	0.037941
1.900000	0.036982
1.950000	0.036150
2.000000	0.036541
2.050000	0.040512
2.100000	0.046995
2.150000	0.060761
2.200000	0.083663
2.250000	0.112984
2.300000	0.130177
2.350000	0.136216
2.400000	0.139711
2.450000	0.165003
2.500000	0.192013
2.550000	0.198675
2.600000	0.143080
2.650000	0.116887
2.700000	0.138979
2.750000	0.144065
2.800000	0.149525
2.850000	0.140749
2.900000	0.141889
2.950000	0.169302
3.000000	0.217521
3.050000	0.215439
3.100000	0.212193
3.150000	0.207924
3.200000	0.207090
3.250000	0.222544
3.300000	0.233228
3.350000	0.242809
3.400000	0.252797
3.450000	0.263481
3.500000	0.276123
3.550000	0.284286
3.600000	0.291784
3.650000	0.307751
3.700000	0.326553
3.750000	0.351878
3.800000	0.375129
3.850000	0.385164
3.900000	0.395876
3.950000	0.408960
4.000000	0.415406
4.050000	0.417474
4.100000	0.423631
4.150000	0.430488
4.200000	0.437761
4.250000	0.440639
4.300000	0.441121
4.350000	0.447233
4.400000	0.454799
4.450000	0.460919
4.500000	0.462651
4.550000	0.461027
4.600000	0.459926
4.650000	0.459958
4.700000	0.457863
4.750000	0.458458
4.800000	0.460658
4.850000	0.459590
4.900000	0.458745
4.950000	0.464885
5.000000	0.473841
5.050000	0.479074
5.100000	0.481836
5.150000	0.483500
5.200000	0.485809
5.250000	0.488372
5.300000	0.490126
5.350000	0.490965
5.400000	0.490288
5.450000	0.486170
5.500000	0.482554
5.550000	0.481136
5.600000	0.484002
5.650000	0.487008
5.700000	0.486923
5.750000	0.484974
5.800000	0.485295
5.850000	0.484574
5.900000	0.486079
5.950000	0.485893
6.000000	0.482868
6.050000	0.483857
6.100000	0.486963
6.150000	0.488281
6.200000	0.489189
6.250000	0.489821
6.300000	0.490188
6.350000	0.491074
6.400000	0.493493
6.450000	0.494167
6.500000	0.495345
6.550000	0.497866
6.600000	0.499371
6.650000	0.500016
6.700000	0.497540
6.750000	0.494185
6.800000	0.493908
6.850000	0.495426
6.900000	0.497724
6.950000	0.499192
7.000000	0.500019
7.050000	0.500723
7.100000	0.501795
7.150000	0.502912
7.200000	0.503589
7.250000	0.503774
7.300000	0.503362
7.350000	0.501060
7.400000	0.498111
7.450000	0.498197
7.500000	0.499433
7.550000	0.500796
7.600000	0.501007
7.650000	0.500032
7.700000	0.498609
7.750000	0.497651
7.800000	0.497915
7.850000	0.498326
7.900000	0.499191
7.950000	0.499917
8.000000	0.496843
8.050000	0.494862
8.100000	0.495319
8.150000	0.496705
8.200000	0.498028
8.250000	0.499076
8.300000	0.499621
8.350000	0.500238
8.400000	0.501455
8.450000	0.502934
8.500000	0.504153
8.550000	0.505397
8.600000	0.505780
8.650000	0.502631
8.700000	0.500687
8.750000	0.500909
8.800000	0.501962
8.850000	0.503257
8.900000	0.503491
8.950000	0.503286
9.000000	0.503553
9.050000	0.504175
9.100000	0.504994
9.150000	0.505723
9.200000	0.506532
9.250000	0.507046
9.300000	0.505265
9.350000	0.501730
9.400000	0.501578
9.450000	0.502628
9.500000	0.504072
9.550000	0.505305
9.600000	0.505541
9.650000	0.506045
9.700000	0.506713
9.750000	0.507962
9.800000	0.509012
9.850000	0.509801
9.900000	0.510759
9.950000	0.511140
10.000000	0.508615
10.050000	0.506217
10.100000	0.506528
10.150000	0.507810
10.200000	0.509250
10.250000	0.510053
10.300000	0.510514
10.350000	0.511029
10.400000	0.511914
10.450000	0.513120
10.500000	0.514144
10.550000	0.514992
10.600000	0.515824
10.650000	0.515683
10.700000	0.512455
10.750000	0.510541
10.800000	0.511160
10.850000	0.512709
10.900000	0.514127
10.950000	0.514653
11.000000	0.514780
11.050000	0.515235
11.100000	0.516132
11.150000	0.517093
11.200000	0.518084
11.250000	0.518846
11.300000	0.519412
11.350000	0.517548
11.400000	0.514692
11.450000	0.514338
11.500000	0.515411
11.550000	0.516766
11.600000	0.517328
11.650000	0.517349
11.700000	0.517631
11.750000	0.518282
11.800000	0.519091
11.850000	0.519894
11.900000	0.520750
11.950000	0.520987
12.000000	0.518237
12.050000	0.515871
12.100000	0.516068
12.150000	0.517193
12.200000	0.518543
12.250000	0.518981
12.300000	0.519088
12.350000	0.519566
12.400000	0.520251
12.450000	0.521094
12.500000	0.521902
12.550000	0.522506
12.600000	0.520472
12.650000	0.517149
12.700000	0.516797
12.750000	0.517894
12.800000	0.519259
12.850000	0.519960
12.900000	0.520148
12.950000	0.520235
13.000000	0.520930
13.050000	0.521807
13.100000	0.522692
13.150000	0.523415
13.200000	0.522242
13.250000	0.518435
13.300000	0.517175
13.350000	0.517882
13.400000	0.519037
13.450000	0.519928
13.500000	0.520172
13.550000	0.520502
13.600000	0.521029
13.650000	0.521736
13.700000	0.522485
13.750000	0.523362
13.800000	0.523547
13.850000	0.520328
13.900000	0.517818
13.950000	0.518278
14.000000	0.519384
14.050000	0.520581
14.100000	0.521087
14.150000	0.520966
14.200000	0.521316
14.250000	0.522004
14.300000	0.522679
14.350000	0.523380
14.400000	0.524022
14.450000	0.523332
14.500000	0.519429
14.550000	0.517746
14.600000	0.518422
14.650000	0.519256
14.700000	0.520044
14.750000	0.520190
14.800000	0.520188
14.850000	0.520713
14.900000	0.521395
14.950000	0.522113
15.000000	0.522661
15.050000	0.523221
15.100000	0.522446
15.150000	0.518632
15.200000	0.517276
15.250000	0.518005
15.300000	0.519175
15.350000	0.520161
15.400000	0.520210
15.450000	0.520333
15.500000	0.520689
15.550000	0.521458
15.600000	0.522196
15.650000	0.522829
15.700000	0.523578
15.750000	0.523037
15.800000	0.519665
15.850000	0.518269
15.900000	0.518926
15.950000	0.520198
16.000000	0.521272
16.050000	0.521482
16.100000	0.521487
16.150000	0.521932
16.200000	0.522583
16.250000	0.523341
16.300000	0.523977
16.350000	0.524649
16.400000	0.523597
16.450000	0.520268
16.500000	0.519163
16.550000	0.519891
16.600000	0.521183
16.650000	0.522100
16.700000	0.522213
16.750000	0.522356
16.800000	0.522900
16.850000	0.523590
16.900000	0.524386
16.950000	0.525171
17.000000	0.525855
17.050000	0.525347
17.100000	0.521861
17.150000	0.520178
17.200000	0.520915
17.250000	0.522241
17.300000	0.523210
17.350000	0.523508
17.400000	0.523521
17.450000	0.523832
17.500000	0.524677
17.550000	0.525470
17.600000	0.526038
17.650000	0.526733
17.700000	0.527270
17.750000	0.525488
17.800000	0.521957
17.850000	0.521355
17.900000	0.522231
17.950000	0.523535
18.000000	0.524282
18.050000	0.524371
18.100000	0.524653
18.150000	0.525248
18.200000	0.526114
18.250000	0.526865
18.300000	0.527486
18.350000	0.527988
18.400000	0.528479
18.450000	0.526280
18.500000	0.523173
18.550000	0.522991
18.600000	0.523925
18.650000	0.525220
18.700000	0.525861
18.750000	0.525888
18.800000	0.526112
18.850000	0.526746
18.900000	0.527485
18.950000	0.528169
19.000000	0.528755
19.050000	0.529336
19.100000	0.529490
19.150000	0.526862
19.200000	0.524152
19.250000	0.524160
19.300000	0.524898
19.350000	0.526119
19.400000	0.526535
19.450000	0.526811
19.500000	0.526796
19.550000	0.527403
19.600000	0.528320
19.650000	0.528909
19.700000	0.529607
19.750000	0.530287
19.800000	0.530557
19.850000	0.527910
19.900000	0.525764
19.950000	0.526075
20.000000	0.527385
20.050000	0.528648
20.100000	0.529015
20.150000	0.529261
20.200000	0.529672
20.250000	0.530366
20.300000	0.531183
20.350000	0.532020
20.400000	0.532844
20.450000	0.533571
20.500000	0.532192
20.550000	0.529195
20.600000	0.528719
20.650000	0.529628
20.700000	0.531057
20.750000	0.531703
20.800000	0.531635
20.850000	0.531685
20.900000	0.532219
20.950000	0.532990
21.000000	0.533640
21.050000	0.534304
21.100000	0.534704
21.150000	0.532892
21.200000	0.529748
21.250000	0.529499
21.300000	0.530503
21.350000	0.531773
21.400000	0.532423
21.450000	0.532435
21.500000	0.532471
21.550000	0.532986
21.600000	0.533684
21.650000	0.534414
21.700000	0.535054
21.750000	0.535171
21.800000	0.532303
21.850000	0.529708
21.900000	0.529817
21.950000	0.530768
22.000000	0.532016
22.050000	0.532502
22.100000	0.532582
22.150000	0.532859
22.200000	0.533520
22.250000	0.534264
22.300000	0.534808
22.350000	0.535493
22.400000	0.535163
22.450000	0.531744
22.500000	0.529521
22.550000	0.529837
22.600000	0.530757
22.650000	0.531781
22.700000	0.532160
22.750000	0.532110
22.800000	0.532375
22.850000	0.533003
22.900000	0.533597
22.950000	0.534238
23.000000	0.534857
23.050000	0.534834
23.100000	0.531774
23.150000	0.529260
23.200000	0.529449
23.250000	0.530368
23.300000	0.531451
23.350000	0.532070
23.400000	0.532068
23.450000	0.532358
23.500000	0.533076
23.550000	0.533821
23.600000	0.534649
23.650000	0.535234
23.700000	0.535773
23.750000	0.534767
23.800000	0.531170
23.850000	0.530250
23.900000	0.530947
23.950000	0.532035
24.000000	0.533027
24.050000	0.533173
24.100000	0.533219
24.150000	0.533723
24.200000	0.534347
24.250000	0.535000
24.300000	0.535558
24.350000	0.536101
24.400000	0.536661
24.450000	0.534713
24.500000	0.531379
24.550000	0.530871
24.600000	0.531699
24.650000	0.532922
24.700000	0.533468
24.750000	0.533492
24.800000	0.533530
24.850000	0.534098
24.900000	0.534755
24.950000	0.535272
25.000000	0.535767
25.050000	0.536306
25.100000	0.536456
25.150000	0.533536
25.200000	0.530869
25.250000	0.530926
25.300000	0.531828
25.350000	0.532837
25.400000	0.533350
25.450000	0.533314
25.500000	0.533477
25.550000	0.534179
25.600000	0.534859
25.650000	0.535577
25.700000	0.536124
25.750000	0.536721
25.800000	0.536664
25.850000	0.533594
25.900000	0.531397
25.950000	0.531789
26.000000	0.532842
26.050000	0.533907
26.100000	0.534336
26.150000	0.534251
26.200000	0.534657
26.250000	0.535576
26.300000	0.536465
26.350000	0.537101
26.400000	0.537656
26.450000	0.538298
26.500000	0.538705
26.550000	0.536223
26.600000	0.533292
26.650000	0.533361
26.700000	0.534215
26.750000	0.535419
26.800000	0.535957
26.850000	0.536052
26.900000	0.536284
26.950000	0.536983
27.000000	0.537825
27.050000	0.538671
27.100000	0.539338
27.150000	0.540025
27.200000	0.540545
27.250000	0.538874
27.300000	0.535689
27.350000	0.535188
27.400000	0.536151
27.450000	0.537299
27.500000	0.538090
27.550000	0.538226
27.600000	0.538492
27.650000	0.539096
27.700000	0.539909
27.750000	0.540770
27.800000	0.541436
27.850000	0.542067
27.900000	0.542747
27.950000	0.541402
28.000000	0.538078
28.050000	0.537446
28.100000	0.538380
28.150000	0.539843
28.200000	0.540664
28.250000	0.540761
28.300000	0.540889
28.350000	0.541367
28.400000	0.542073
28.450000	0.543050
28.500000	0.543736
28.550000	0.544537
28.600000	0.544566
28.650000	0.541958
28.700000	0.539667
28.750000	0.539941
28.800000	0.541064
28.850000	0.542379
28.900000	0.542576
28.950000	0.542453
29.000000	0.542802
29.050000	0.543406
29.100000	0.544273
29.150000	0.544983
29.200000	0.545586
29.250000	0.545895
29.300000	0.543280
29.350000	0.540588
29.400000	0.540730
29.450000	0.541504
29.500000	0.542603
29.550000	0.542928
29.600000	0.542856
29.650000	0.543065
29.700000	0.543702
29.750000	0.544396
29.800000	0.544882
29.850000	0.545455
29.900000	0.544989
29.950000	0.541636
30.000000	0.539725
30.050000	0.540168
30.100000	0.541184
30.150000	0.542141
30.200000	0.542463
30.250000	0.542417
30.300000	0.542696
30.350000	0.543295
30.400000	0.543913
30.450000	0.544555
30.500000	0.545147
30.550000	0.543892
30.600000	0.540318
30.650000	0.539245
30.700000	0.539943
30.750000	0.540822
30.800000	0.541684
30.850000	0.541925
30.900000	0.541837
30.950000	0.542429
31.000000	0.543047
31.050000	0.543810
31.100000	0.544286
31.150000	0.544770
31.200000	0.542993
31.250000	0.539368
31.300000	0.538715
31.350000	0.539320
31.400000	0.540319
31.450000	0.540935
31.500000	0.540970
31.550000	0.541053
31.600000	0.541532
31.650000	0.542292
31.700000	0.542856
31.750000	0.543359
31.800000	0.543907
31.850000	0.543200
31.900000	0.539533
31.950000	0.537835
32.000000	0.538264
32.050000	0.539185
32.100000	0.540182
32.150000	0.540529
32.200000	0.540391
32.250000	0.540730
32.300000	0.541295
32.350000	0.541876
32.400000	0.542456
32.450000	0.542943
32.500000	0.543301
32.550000	0.541310
32.600000	0.538000
32.650000	0.537439
32.700000	0.538187
32.750000	0.539249
32.800000	0.539709
32.850000	0.539618
32.900000	0.539811
32.950000	0.540332
33.000000	0.541006
33.050000	0.541592
33.100000	0.542093
33.150000	0.542717
33.200000	0.542539
33.250000	0.539484
33.300000	0.537180
33.350000	0.537557
33.400000	0.538416
33.450000	0.539463
33.500000	0.539677
33.550000	0.539569
33.600000	0.539721
33.650000	0.540148
33.700000	0.540686
33.750000	0.540998
33.800000	0.541531
33.850000	0.542190
33.900000	0.541164
33.950000	0.537581
34.000000	0.536370
34.050000	0.536899
34.100000	0.537656
34.150000	0.538469
34.200000	0.538662
34.250000	0.538561
34.300000	0.538895
34.350000	0.539423
34.400000	0.540045
34.450000	0.540588
34.500000	0.541191
34.550000	0.541709
34.600000	0.539920
34.650000	0.536661
34.700000	0.536112
34.750000	0.536743
34.800000	0.537725
34.850000	0.538573
34.900000	0.538723
34.950000	0.539016
35.000000	0.539495
35.050000	0.540276
35.100000	0.540947
35.150000	0.541578
35.200000	0.542078
35.250000	0.542665
35.300000	0.541819
35.350000	0.538287
35.400000	0.536959
35.450000	0.537602
35.500000	0.538565
35.550000	0.539511
35.600000	0.539816
35.650000	0.539767
35.700000	0.540173
35.750000	0.540933
35.800000	0.541661
35.850000	0.542336
35.900000	0.542800
35.950000	0.543440
36.000000	0.543401
36.050000	0.540371
36.100000	0.537901
36.150000	0.538016
36.200000	0.538768
36.250000	0.539903
36.300000	0.540459
36.350000	0.540507
36.400000	0.540804
36.450000	0.541383
36.500000	0.542280
36.550000	0.543067
36.600000	0.543668
36.650000	0.544248
36.700000	0.544817
36.750000	0.542975
36.800000	0.539765
36.850000	0.539427
36.900000	0.540339
36.950000	0.541471
37.000000	0.542150
37.050000	0.542262
37.100000	0.542466
37.150000	0.543116
37.200000	0.543915
37.250000	0.544633
37.300000	0.545293
37.350000	0.545806
37.400000	0.546251
37.450000	0.544342
37.500000	0.541219
37.550000	0.541034
37.600000	0.541938
37.650000	0.543235
37.700000	0.543993
37.750000	0.543935
37.800000	0.544031
37.850000	0.544489
37.900000	0.545190
37.950000	0.545705
38.000000	0.546200
38.050000	0.546893
38.100000	0.545887
38.150000	0.542550
38.200000	0.541397
38.250000	0.542142
38.300000	0.543341
38.350000	0.544061
38.400000	0.544309
38.450000	0.544376
38.500000	0.544817
38.550000	0.545520
38.600000	0.546137
38.650000	0.546862
38.700000	0.547397
38.750000	0.545638
38.800000	0.542318
38.850000	0.541757
38.900000	0.542557
38.950000	0.543492
39.000000	0.544211
39.050000	0.544233
39.100000	0.544263
39.150000	0.544895
39.200000	0.545333
39.250000	0.545933
39.300000	0.546521
39.350000	0.546666
39.400000	0.544144
39.450000	0.541198
39.500000	0.541153
39.550000	0.542016
39.600000	0.543046
39.650000	0.543640
39.700000	0.543638
39.750000	0.543870
39.800000	0.544469
39.850000	0.545106
39.900000	0.545771
39.950000	0.546397
40.000000	0.546456
40.050000	0.543503
40.100000	0.540691
40.150000	0.540698
40.200000	0.541419
40.250000	0.542343
40.300000	0.542893
40.350000	0.542852
40.400000	0.543125
40.450000	0.543593
40.500000	0.544377
40.550000	0.544850
40.600000	0.545580
40.650000	0.545953
40.700000	0.543678
40.750000	0.540544
40.800000	0.540068
40.850000	0.540658
40.900000	0.541770
40.950000	0.542617
41.000000	0.542681
41.050000	0.542926
41.100000	0.543533
41.150000	0.544161
41.200000	0.544650
41.250000	0.545331
41.300000	0.545921
41.350000	0.545725
41.400000	0.542556
41.450000	0.540251
41.500000	0.540563
41.550000	0.541429
41.600000	0.542397
41.650000	0.542808
41.700000	0.542626
41.750000	0.543016
41.800000	0.543774
41.850000	0.544294
41.900000	0.544883
41.950000	0.545326
42.000000	0.546032
42.050000	0.545508
42.100000	0.541874
42.150000	0.540276
42.200000	0.540860
42.250000	0.541834
42.300000	0.542718
42.350000	0.543018
42.400000	0.543006
42.450000	0.543292
42.500000	0.544038
42.550000	0.544558
42.600000	0.545274
42.650000	0.545795
42.700000	0.546541
42.750000	0.545883
42.800000	0.542299
42.850000	0.540799
42.900000	0.541217
42.950000	0.542098
43.000000	0.542992
43.050000	0.543144
43.100000	0.543163
43.150000	0.543550
43.200000	0.544163
43.250000	0.544740
43.300000	0.545304
43.350000	0.546024
43.400000	0.546617
43.450000	0.546225
43.500000	0.542844
43.550000	0.541276
43.600000	0.541685
43.650000	0.542652
43.700000	0.543522
43.750000	0.543822
43.800000	0.543809
43.850000	0.544199
43.900000	0.544876
43.950000	0.545508
44.000000	0.546108
44.050000	0.546594
44.100000	0.547158
44.150000	0.547143
44.200000	0.544207
44.250000	0.541732
44.300000	0.541829
44.350000	0.542845
44.400000	0.543910
44.450000	0.544312
44.500000	0.544261
44.550000	0.544441
44.600000	0.544910
44.650000	0.545475
44.700000	0.545959
44.750000	0.546525
44.800000	0.547201
44.850000	0.547514
44.900000	0.545370
44.950000	0.542362
45.000000	0.541865
45.050000	0.542838
45.100000	0.543897
45.150000	0.544399
45.200000	0.544615
45.250000	0.544658
45.300000	0.545154
45.350000	0.545839
45.400000	0.546214
45.450000	0.546679
45.500000	0.547260
45.550000	0.547632
45.600000	0.546059
45.650000	0.543053
45.700000	0.542913
45.750000	0.543888
45.800000	0.545209
45.850000	0.545945
45.900000	0.545946
45.950000	0.546268
46.000000	0.547031
46.050000	0.547833
46.100000	0.548687
46.150000	0.549264
46.200000	0.549860
46.250000	0.549788
46.300000	0.546935
46.350000	0.544800
46.400000	0.545014
46.450000	0.545932
46.500000	0.546955
46.550000	0.547346
46.600000	0.547191
46.650000	0.547513
46.700000	0.548132
46.750000	0.548714
46.800000	0.549323
46.850000	0.549535
46.900000	0.549929
46.950000	0.547564
47.000000	0.544590
47.050000	0.544196
47.100000	0.544891
47.150000	0.545899
47.200000	0.546269
47.250000	0.546117
47.300000	0.546168
47.350000	0.546760
47.400000	0.547254
47.450000	0.547804
47.500000	0.548374
47.550000	0.548681
47.600000	0.546639
47.650000	0.543165
47.700000	0.542853
47.750000	0.543436
47.800000	0.544306
47.850000	0.544905
47.900000	0.544930
47.950000	0.544920
48.000000	0.545332
48.050000	0.545794
48.100000	0.546230
48.150000	0.546581
48.200000	0.547009
48.250000	0.545267
48.300000	0.541710
48.350000	0.541011
48.400000	0.541566
48.450000	0.542388
48.500000	0.543066
48.550000	0.543116
48.600000	0.543122
48.650000	0.543798
48.700000	0.544335
48.750000	0.544988
48.800000	0.545551
48.850000	0.546088
48.900000	0.545717
48.950000	0.542203
49.000000	0.540523
49.050000	0.540906
49.100000	0.541692
49.150000	0.542400
49.200000	0.542726
49.250000	0.542653
49.300000	0.542930
49.350000	0.543749
49.400000	0.544217
49.450000	0.544925
49.500000	0.545684
49.550000	0.546049
49.600000	0.543707
49.650000	0.540622
49.700000	0.540373
49.750000	0.540899
49.800000	0.541751
49.850000	0.542250
49.900000	0.542181
49.950000	0.542257
50.000000	0.542779
50.050000	0.543282
50.100000	0.543838
50.150000	0.544466
50.200000	0.545167
50.250000	0.545251
50.300000	0.542317
50.350000	0.539836
50.400000	0.539950
50.450000	0.541035
50.500000	0.541876
50.550000	0.542286
50.600000	0.542218
50.650000	0.542300
50.700000	0.543073
50.750000	0.543485
50.800000	0.544136
50.850000	0.544953
50.900000	0.545539
50.950000	0.544505
51.000000	0.541088
51.050000	0.540070
51.100000	0.540829
51.150000	0.542052
51.200000	0.543116
51.250000	0.543263
51.300000	0.543315
51.350000	0.543889
51.400000	0.544558
51.450000	0.545322
51.500000	0.546066
51.550000	0.546661
51.600000	0.546920
51.650000	0.544065
51.700000	0.541533
51.750000	0.541765
51.800000	0.542601
51.850000	0.543653
51.900000	0.544036
51.950000	0.544023
52.000000	0.544358
52.050000	0.545101
52.100000	0.545908
52.150000	0.546550
52.200000	0.547216
52.250000	0.547874
52.300000	0.546107
52.350000	0.542928
52.400000	0.542491
52.450000	0.543080
52.500000	0.544324
52.550000	0.545012
52.600000	0.545117
52.650000	0.545239
52.700000	0.546017
52.750000	0.546630
52.800000	0.547262
52.850000	0.547854
52.900000	0.548427
52.950000	0.547398
53.000000	0.543814
53.050000	0.542685
53.100000	0.543221
53.150000	0.544139
53.200000	0.545242
53.250000	0.545513
53.300000	0.545596
53.350000	0.546254
53.400000	0.546958
53.450000	0.547651
53.500000	0.548396
53.550000	0.549095
53.600000	0.548924
53.650000	0.545515
53.700000	0.543618
53.750000	0.544089
53.800000	0.545058
53.850000	0.546203
53.900000	0.546727
53.950000	0.546749
54.000000	0.547234
54.050000	0.547940
54.100000	0.548672
54.150000	0.549370
54.200000	0.550135
54.250000	0.550273
54.300000	0.547646
54.350000	0.544964
54.400000	0.545219
54.450000	0.546004
54.500000	0.547118
54.550000	0.547743
54.600000	0.547786
54.650000	0.548161
54.700000	0.548923
54.750000	0.549586
54.800000	0.550247
54.850000	0.550941
54.900000	0.551557
54.950000	0.550662
55.000000	0.547175
55.050000	0.546415
55.100000	0.547124
55.150000	0.548207
55.200000	0.549055
55.250000	0.549437
55.300000	0.549615
55.350000	0.550180
55.400000	0.550957
55.450000	0.551704
55.500000	0.552531
55.550000	0.553371
55.600000	0.553392
55.650000	0.550556
55.700000	0.548441
55.750000	0.548863
55.800000	0.550113
55.850000	0.551172
55.900000	0.551816
55.950000	0.551843
56.000000	0.552217
56.050000	0.552863
56.100000	0.553760
56.150000	0.554352
56.200000	0.555174
56.250000	0.555603
56.300000	0.553699
56.350000	0.550859
56.400000	0.550860
56.450000	0.551990
56.500000	0.553389
56.550000	0.554029
56.600000	0.554237
56.650000	0.554718
56.700000	0.555529
56.750000	0.556229
56.800000	0.557125
56.850000	0.558028
56.900000	0.558436
56.950000	0.556281
57.000000	0.553670
57.050000	0.553759
57.100000	0.554822
57.150000	0.555990
57.200000	0.556573
57.250000	0.556670
57.300000	0.557034
57.350000	0.557794
57.400000	0.558618
57.450000	0.559359
57.500000	0.560045
57.550000	0.559739
57.600000	0.556563
57.650000	0.554886
57.700000	0.555478
57.750000	0.556683
57.800000	0.557790
57.850000	0.558008
57.900000	0.557983
57.950000	0.558643
58.000000	0.559251
58.050000	0.559940
58.100000	0.560641
58.150000	0.560997
58.200000	0.558502
58.250000	0.555592
58.300000	0.555584
58.350000	0.556551
58.400000	0.557728
58.450000	0.558310
58.500000	0.558392
58.550000	0.558775
58.600000	0.559573
58.650000	0.560294
58.700000	0.561030
58.750000	0.561796
58.800000	0.561501
58.850000	0.558051
58.900000	0.556385
58.950000	0.556958
59.000000	0.557925
59.050000	0.559072
59.100000	0.559377
59.150000	0.559433
59.200000	0.559994
59.250000	0.560631
59.300000	0.561245
59.350000	0.561999
59.400000	0.562673
59.450000	0.562246
59.500000	0.558777
59.550000	0.557046
59.600000	0.557630
59.650000	0.558489
59.700000	0.559874
59.750000	0.560093
59.800000	0.560192
59.850000	0.560550
59.900000	0.561549
59.950000	0.562307
60.000000	0.563023
60.050000	0.563692
60.100000	0.563936
60.150000	0.561194
60.200000	0.558396
60.250000	0.558502
60.300000	0.559485
60.350000	0.560687
60.400000	0.561234
60.450000	0.561252
60.500000	0.561583
60.550000	0.562328
60.600000	0.563014
60.650000	0.563573
60.700000	0.564319
60.750000	0.564600
60.800000	0.564118
60.850000	0.560573
60.900000	0.559064
60.950000	0.559698
61.000000	0.561023
61.050000	0.561942
61.100000	0.562068
61.150000	0.562142
61.200000	0.562797
61.250000	0.563492
61.300000	0.564302
61.350000	0.564993
61.400000	0.565627
61.450000	0.565986
61.500000	0.563726
61.550000	0.560824
61.600000	0.560841
61.650000	0.561799
61.700000	0.563086
61.750000	0.563520
61.800000	0.563569
61.850000	0.563928
61.900000	0.564591
61.950000	0.565376
62.000000	0.566050
62.050000	0.566741
62.100000	0.567251
62.150000	0.565352
62.200000	0.562228
62.250000	0.561906
62.300000	0.562745
62.350000	0.564072
62.400000	0.564681
62.450000	0.564592
62.500000	0.564717
62.550000	0.565353
62.600000	0.565962
62.650000	0.566526
62.700000	0.567239
62.750000	0.567454
62.800000	0.565201
62.850000	0.562193
62.900000	0.562056
62.950000	0.562902
63.000000	0.563926
63.050000	0.564574
63.100000	0.564381
63.150000	0.564615
63.200000	0.565100
63.250000	0.565751
63.300000	0.566438
63.350000	0.567028
63.400000	0.566692
63.450000	0.563058
63.500000	0.561089
63.550000	0.561604
63.600000	0.562633
63.650000	0.563773
63.700000	0.564005
63.750000	0.563930
63.800000	0.564420
63.850000	0.565029
63.900000	0.565666
63.950000	0.566341
64.000000	0.567023
64.050000	0.565681
64.100000	0.562098
64.150000	0.561143
64.200000	0.561781
64.250000	0.562788
64.300000	0.563691
64.350000	0.563731
64.400000	0.563930
64.450000	0.564424
64.500000	0.565255
64.550000	0.565932
64.600000	0.566437
64.650000	0.567231
64.700000	0.566303
64.750000	0.562628
64.800000	0.561049
64.850000	0.561354
64.900000	0.562496
64.950000	0.563404
65.000000	0.563626
65.050000	0.563534
65.100000	0.563913
65.150000	0.564684
65.200000	0.565200
65.250000	0.565741
65.300000	0.566349
65.350000	0.566866
65.400000	0.565017
65.450000	0.561526
65.500000	0.561075
65.550000	0.561847
65.600000	0.562818
65.650000	0.563665
65.700000	0.563502
65.750000	0.563598
65.800000	0.564123
65.850000	0.564832
65.900000	0.565180
65.950000	0.565896
66.000000	0.566504
66.050000	0.566876
66.100000	0.564313
66.150000	0.561451
66.200000	0.561536
66.250000	0.562505
66.300000	0.563767
66.350000	0.564308
66.400000	0.564331
66.450000	0.564515
66.500000	0.565115
66.550000	0.565795
66.600000	0.566265
66.650000	0.566930
66.700000	0.567334
66.750000	0.567081
66.800000	0.564012
66.850000	0.561908
66.900000	0.562180
66.950000	0.563352
67.000000	0.564430
67.050000	0.564676
67.100000	0.564822
67.150000	0.565163
67.200000	0.565967
67.250000	0.566631
67.300000	0.567213
67.350000	0.567817
67.400000	0.567914
67.450000	0.565269
67.500000	0.562592
67.550000	0.562547
67.600000	0.563550
67.650000	0.564751
67.700000	0.565092
67.750000	0.565064
67.800000	0.565134
67.850000	0.565712
67.900000	0.566130
67.950000	0.566619
68.000000	0.567111
68.050000	0.566764
68.100000	0.563943
68.150000	0.561304
68.200000	0.561391
68.250000	0.562154
68.300000	0.563309
68.350000	0.563916
68.400000	0.563696
68.450000	0.564284
68.500000	0.564954
68.550000	0.565596
68.600000	0.566376
68.650000	0.566908
68.700000	0.566299
68.750000	0.562429
68.800000	0.560806
68.850000	0.560986
68.900000	0.561874
68.950000	0.562990
69.000000	0.563008
69.050000	0.563018
69.100000	0.563455
69.150000	0.564220
69.200000	0.564709
69.250000	0.565335
69.300000	0.565624
69.350000	0.564157
69.400000	0.560554
69.450000	0.559329
69.500000	0.559706
69.550000	0.560407
69.600000	0.561158
69.650000	0.561310
69.700000	0.561514
69.750000	0.562093
69.800000	0.562751
69.850000	0.563377
69.900000	0.564064
69.950000	0.564717
70.000000	0.563746
70.050000	0.560075
70.100000	0.558472
70.150000	0.558766
70.200000	0.559705
70.250000	0.560328
70.300000	0.560514
70.350000	0.560370
70.400000	0.560767
70.450000	0.561519
70.500000	0.561990
70.550000	0.562422
70.600000	0.563158
70.650000	0.563647
70.700000	0.560942
70.750000	0.557702
70.800000	0.557362
70.850000	0.557708
70.900000	0.559167
70.950000	0.559602
71.000000	0.559621
71.050000	0.559840
71.100000	0.560492
71.150000	0.561251
71.200000	0.561718
71.250000	0.562405
71.300000	0.563141
71.350000	0.563081
71.400000	0.560051
71.450000	0.557750
71.500000	0.557876
71.550000	0.558643
71.600000	0.559795
71.650000	0.560032
71.700000	0.560070
71.750000	0.560283
71.800000	0.561048
71.850000	0.561528
71.900000	0.562096
71.950000	0.562766
72.000000	0.563505
72.050000	0.562652
72.100000	0.559246
72.150000	0.558079
72.200000	0.558789
72.250000	0.559773
72.300000	0.560901
72.350000	0.561204
72.400000	0.561176
72.450000	0.561919
72.500000	0.562514
72.550000	0.563047
72.600000	0.563288
72.650000	0.563482
72.700000	0.563408
72.750000	0.560272
72.800000	0.558028
72.850000	0.558403
72.900000	0.559072
72.950000	0.560173
73.000000	0.560492
73.050000	0.560285
73.100000	0.560898
73.150000	0.561533
73.200000	0.562009
73.250000	0.563060
73.300000	0.563709
73.350000	0.564285
73.400000	0.561080
73.450000	0.558355
73.500000	0.558592
73.550000	0.559342
73.600000	0.560534
73.650000	0.560815
73.700000	0.560786
73.750000	0.561276
73.800000	0.561709
73.850000	0.562536
73.900000	0.563057
73.950000	0.563666
74.000000	0.563439
74.050000	0.560037
74.100000	0.557711
74.150000	0.557765
74.200000	0.558592
74.250000	0.559708
74.300000	0.560273
74.350000	0.560381
74.400000	0.560542
74.450000	0.561529
74.500000	0.562055
74.550000	0.562935
74.600000	0.563572
74.650000	0.563480
74.700000	0.560243
74.750000	0.557857
74.800000	0.558136
74.850000	0.558974
74.900000	0.560093
74.950000	0.560693
75.000000	0.560872
75.050000	0.561226
75.100000	0.561867
75.150000	0.562201
75.200000	0.562912
75.250000	0.563450
75.300000	0.563910
75.350000	0.561788
75.400000	0.558236
75.450000	0.557889
75.500000	0.558429
75.550000	0.559639
75.600000	0.560279
75.650000	0.560569
75.700000	0.560581
75.750000	0.561408
75.800000	0.562238
75.850000	0.562810
75.900000	0.563588
75.950000	0.564185
76.000000	0.563479
76.050000	0.559900
76.100000	0.557928
76.150000	0.558271
76.200000	0.559408
76.250000	0.560587
76.300000	0.560964
76.350000	0.561162
76.400000	0.561649
76.450000	0.562447
76.500000	0.563102
76.550000	0.563623
76.600000	0.564291
76.650000	0.564892
76.700000	0.563284
76.750000	0.559718
76.800000	0.558867
76.850000	0.559754
76.900000	0.560950
76.950000	0.561864
77.000000	0.561909
77.050000	0.561967
77.100000	0.562844
77.150000	0.563423
77.200000	0.563995
77.250000	0.564726
77.300000	0.564860
77.350000	0.563931
77.400000	0.560519
77.450000	0.559092
77.500000	0.559487
77.550000	0.560794
77.600000	0.561585
77.650000	0.561599
77.700000	0.561838
77.750000	0.562385
77.800000	0.563111
77.850000	0.563952
77.900000	0.564505
77.950000	0.565454
78.000000	0.565001
78.050000	0.561683
78.100000	0.560176
78.150000	0.560547
78.200000	0.561647
78.250000	0.562770
78.300000	0.563065
78.350000	0.563104
78.400000	0.563714
78.450000	0.564222
78.500000	0.564961
78.550000	0.565639
78.600000	0.566320
78.650000	0.564840
78.700000	0.561628
78.750000	0.560898
78.800000	0.561683
78.850000	0.562848
78.900000	0.563790
78.950000	0.563924
79.000000	0.564029
79.050000	0.564772
79.100000	0.565506
79.150000	0.566190
79.200000	0.566958
79.250000	0.567116
79.300000	0.564464
79.350000	0.561680
79.400000	0.561783
79.450000	0.562426
79.500000	0.563642
79.550000	0.564341
79.600000	0.564426
79.650000	0.564448
79.700000	0.565181
79.750000	0.565862
79.800000	0.566392
79.850000	0.567165
79.900000	0.567364
79.950000	0.564451
80.000000	0.561758
80.050000	0.561906
80.100000	0.562759
80.150000	0.563819
80.200000	0.564406
80.250000	0.564408
80.300000	0.564744
80.350000	0.565473
80.400000	0.566147
80.450000	0.567125
80.500000	0.567807
80.550000	0.568502
80.600000	0.566512
80.650000	0.562897
80.700000	0.562248
80.750000	0.562812
80.800000	0.564111
80.850000	0.564818
80.900000	0.565008
80.950000	0.565278
81.000000	0.565982
81.050000	0.566855
81.100000	0.567704
81.150000	0.568465
81.200000	0.569060
81.250000	0.569016
81.300000	0.565680
81.350000	0.563695
81.400000	0.564124
81.450000	0.564987
81.500000	0.566251
81.550000	0.566643
81.600000	0.566552
81.650000	0.566882
81.700000	0.567527
81.750000	0.568100
81.800000	0.568812
81.850000	0.569171
81.900000	0.569812
81.950000	0.568288
82.000000	0.565051
82.050000	0.564468
82.100000	0.565458
82.150000	0.567091
82.200000	0.567823
82.250000	0.567776
82.300000	0.567941
82.350000	0.568367
82.400000	0.568873
82.450000	0.569462
82.500000	0.570289
82.550000	0.571139
82.600000	0.569848
82.650000	0.566329
82.700000	0.565810
82.750000	0.566651
82.800000	0.568145
82.850000	0.568873
82.900000	0.569140
82.950000	0.569241
83.000000	0.569898
83.050000	0.570605
83.100000	0.571346
83.150000	0.572216
83.200000	0.572379
83.250000	0.570285
83.300000	0.567028
83.350000	0.566550
83.400000	0.567478
83.450000	0.568941
83.500000	0.569551
83.550000	0.569367
83.600000	0.569572
83.650000	0.570104
83.700000	0.570609
83.750000	0.571295
83.800000	0.572155
83.850000	0.571843
83.900000	0.568616
83.950000	0.566035
84.000000	0.566292
84.050000	0.567353
84.100000	0.568605
84.150000	0.569056
84.200000	0.568710
84.250000	0.569285
84.300000	0.569621
84.350000	0.570098
84.400000	0.570544
84.450000	0.570889
84.500000	0.569801
84.550000	0.565836
84.600000	0.564197
84.650000	0.564527
84.700000	0.565501
84.750000	0.566536
84.800000	0.566717
84.850000	0.566619
84.900000	0.567098
84.950000	0.567806
85.000000	0.568401
85.050000	0.569353
85.100000	0.569974
85.150000	0.569056
85.200000	0.565473
85.250000	0.563983
85.300000	0.564363
85.350000	0.565484
85.400000	0.565942
85.450000	0.566344
85.500000	0.566026
85.550000	0.566467
85.600000	0.567192
85.650000	0.567598
85.700000	0.568436
85.750000	0.569334
85.800000	0.569500
85.850000	0.566605
85.900000	0.564182
85.950000	0.564373
86.000000	0.565478
86.050000	0.566386
86.100000	0.567037
86.150000	0.566938
86.200000	0.567273
86.250000	0.568360
86.300000	0.568802
86.350000	0.569664
86.400000	0.570048
86.450000	0.570321
86.500000	0.567664
86.550000	0.564549
86.600000	0.564282
86.650000	0.564955
86.700000	0.566524
86.750000	0.566829
86.800000	0.566979
86.850000	0.567009
86.900000	0.567728
86.950000	0.568176
87.000000	0.569160
87.050000	0.569856
87.100000	0.569294
87.150000	0.566493
87.200000	0.563799
87.250000	0.563894
87.300000	0.565264
87.350000	0.566387
87.400000	0.566716
87.450000	0.566778
87.500000	0.567095
87.550000	0.567973
87.600000	0.568428
87.650000	0.569121
87.700000	0.569761
87.750000	0.568190
87.800000	0.564987
87.850000	0.563939
87.900000	0.564438
87.950000	0.565932
88.000000	0.566245
88.050000	0.566548
88.100000	0.566463
88.150000	0.567052
88.200000	0.567390
88.250000	0.567995
88.300000	0.568400
88.350000	0.567843
88.400000	0.564054
88.450000	0.562144
88.500000	0.562470
88.550000	0.563759
88.600000	0.564621
88.650000	0.565135
88.700000	0.565157
88.750000	0.566052
88.800000	0.567087
88.850000	0.568079
88.900000	0.568533
88.950000	0.568592
89.000000	0.564952
89.050000	0.562382
89.100000	0.562685
89.150000	0.563396
89.200000	0.565051
89.250000	0.565313
89.300000	0.565274
89.350000	0.565543
89.400000	0.566272
89.450000	0.566710
89.500000	0.567114
89.550000	0.567997
89.600000	0.566730
89.650000	0.562794
89.700000	0.561081
89.750000	0.561561
89.800000	0.562514
89.850000	0.563124
89.900000	0.563187
89.950000	0.563259
90.000000	0.563751
90.050000	0.564387
90.100000	0.564655
90.150000	0.565303
90.200000	0.565953
90.250000	0.564848
90.300000	0.560932
90.350000	0.559604
90.400000	0.559945
90.450000	0.560759
90.500000	0.561531
90.550000	0.561701
90.600000	0.561714
90.650000	0.562069
90.700000	0.562610
90.750000	0.563375
90.800000	0.564066
90.850000	0.564773
90.900000	0.564346
90.950000	0.560172
91.000000	0.558448
91.050000	0.558515
91.100000	0.559239
91.150000	0.560465
91.200000	0.560678
91.250000	0.560594
91.300000	0.561187
91.350000	0.561814
91.400000	0.562513
91.450000	0.563197
91.500000	0.563747
91.550000	0.563549
91.600000	0.560146
91.650000	0.557596
91.700000	0.558044
91.750000	0.559454
91.800000	0.560171
91.850000	0.560804
91.900000	0.560914
91.950000	0.561102
92.000000	0.561817
92.050000	0.562410
92.100000	0.563385
92.150000	0.563774
92.200000	0.563808
92.250000	0.560631
92.300000	0.558355
92.350000	0.558306
92.400000	0.559444
92.450000	0.560592
92.500000	0.561049
92.550000	0.561316
92.600000	0.561529
92.650000	0.562439
92.700000	0.562934
92.750000	0.563365
92.800000	0.564037
92.850000	0.563833
92.900000	0.560608
92.950000	0.557968
93.000000	0.558200
93.050000	0.559508
93.100000	0.560437
93.150000	0.561264
93.200000	0.561125
93.250000	0.560085
93.300000	0.560621
93.350000	0.561547
93.400000	0.562943
93.450000	0.565027
93.500000	0.565931
93.550000	0.562972
93.600000	0.561151
93.650000	0.561533
93.700000	0.562842
93.750000	0.563866
93.800000	0.564849
93.850000	0.565207
93.900000	0.565682
93.950000	0.566278
94.000000	0.566824
94.050000	0.567183
94.100000	0.567822
94.150000	0.567741
94.200000	0.564425
94.250000	0.561873
94.300000	0.562012
94.350000	0.563412
94.400000	0.564532
94.450000	0.564902
94.500000	0.565524
94.550000	0.565911
94.600000	0.567007
94.650000	0.567921
94.700000	0.569063
94.750000	0.569679
94.800000	0.570486
94.850000	0.568568
94.900000	0.564500
94.950000	0.563623
95.000000	0.564008
95.050000	0.564538
95.100000	0.564038
95.150000	0.564114
95.200000	0.562617
95.250000	0.562598
95.300000	0.562925
95.350000	0.564408
95.400000	0.565964
95.450000	0.566818
95.500000	0.567418
95.550000	0.564188
95.600000	0.562189
95.650000	0.563145
95.700000	0.564598
95.750000	0.566022
95.800000	0.566868
95.850000	0.567090
95.900000	0.567505
95.950000	0.568431
96.000000	0.569393
96.050000	0.570209
96.100000	0.571002
96.150000	0.569750
96.200000	0.566577
96.250000	0.565634
96.300000	0.566666
96.350000	0.568286
96.400000	0.568536
96.450000	0.568149
96.500000	0.568498
96.550000	0.569139
96.600000	0.569997
96.650000	0.571134
96.700000	0.572161
96.750000	0.571786
96.800000	0.569303
96.850000	0.568490
96.900000	0.569843
96.950000	0.571690
97.000000	0.573008
97.050000	0.573155
97.100000	0.573159
97.150000	0.573476
97.200000	0.573928
97.250000	0.574597
97.300000	0.575364
97.350000	0.575346
97.400000	0.572815
97.450000	0.569946
97.500000	0.570032
97.550000	0.570800
97.600000	0.571820
97.650000	0.571949
97.700000	0.572291
97.750000	0.572648
97.800000	0.573429
97.850000	0.574288
97.900000	0.574926
97.950000	0.575491
98.000000	0.572513
98.050000	0.569568
98.100000	0.569802
98.150000	0.570601
98.200000	0.572086
98.250000	0.572231
98.300000	0.572862
98.350000	0.573841
98.400000	0.574661
98.450000	0.575728
98.500000	0.576729
98.550000	0.577444
98.600000	0.575018
98.650000	0.571263
98.700000	0.570862
98.750000	0.571739
98.800000	0.573001
98.850000	0.573878
98.900000	0.574192
98.950000	0.574484
99.000000	0.575113
99.050000	0.575696
99.100000	0.576355
99.150000	0.576778
99.200000	0.577045
99.250000	0.573892
99.300000	0.570608
99.350000	0.570479
99.400000	0.571444
99.450000	0.572507
99.500000	0.573117
99.550000	0.573121
99.600000	0.573608
99.650000	0.574081
99.700000	0.574700
99.750000	0.575217
99.800000	0.575926
99.850000	0.576282
99.900000	0.574048
99.950000	0.570598
100.000000	0.569949
100.050000	0.570649
100.100000	0.571859
100.150000	0.572581
100.200000	0.572483
100.250000	0.572721
100.300000	0.573466
100.350000	0.574138
100.400000	0.574661
100.450000	0.575367
100.500000	0.576297
100.550000	0.576469
100.600000	0.573588
100.650000	0.570651
100.700000	0.570742
100.750000	0.571775
100.800000	0.573203
100.850000	0.573861
100.900000	0.574002
100.950000	0.574202
101.000000	0.575006
101.050000	0.576028
101.100000	0.576534
101.150000	0.577187
101.200000	0.578050
101.250000	0.578404
101.300000	0.576524
101.350000	0.572936
101.400000	0.572051
101.450000	0.572616
101.500000	0.573810
101.550000	0.574694
101.600000	0.574670
101.650000	0.574991
101.700000	0.576109
101.750000	0.576880
101.800000	0.577408
101.850000	0.577979
101.900000	0.578501
101.950000	0.578641
102.000000	0.576866
102.050000	0.573130
102.100000	0.572534
102.150000	0.573196
102.200000	0.574575
102.250000	0.574986
102.300000	0.574920
102.350000	0.575365
102.400000	0.575989
102.450000	0.576812
102.500000	0.577325
102.550000	0.578389
102.600000	0.578882
102.650000	0.578827
102.700000	0.576237
102.750000	0.573423
102.800000	0.573683
102.850000	0.574806
102.900000	0.575882
102.950000	0.576136
103.000000	0.576127
103.050000	0.576456
103.100000	0.577205
103.150000	0.577733
103.200000	0.578480
103.250000	0.579350
103.300000	0.579914
103.350000	0.577868
103.400000	0.574515
103.450000	0.574095
103.500000	0.575029
103.550000	0.576081
103.600000	0.576475
103.650000	0.576495
103.700000	0.576652
103.750000	0.577167
103.800000	0.578108
103.850000	0.578581
103.900000	0.579571
103.950000	0.580244
104.000000	0.579156
104.050000	0.575353
104.100000	0.573597
104.150000	0.573797
104.200000	0.574618
104.250000	0.575089
104.300000	0.575533
104.350000	0.575441
104.400000	0.575740
104.450000	0.576866
104.500000	0.576963
104.550000	0.578171
104.600000	0.578709
104.650000	0.578750
104.700000	0.575117
104.750000	0.571999
104.800000	0.572203
104.850000	0.572482
104.900000	0.573668
104.950000	0.574016
105.000000	0.574436
105.050000	0.574462
105.100000	0.575174
105.150000	0.575956
105.200000	0.576618
105.250000	0.577686
105.300000	0.577963
105.350000	0.576583
105.400000	0.572949
105.450000	0.571309
105.500000	0.571833
105.550000	0.572792
105.600000	0.573670
105.650000	0.573643
105.700000	0.573638
105.750000	0.574258
105.800000	0.574817
105.850000	0.575381
105.900000	0.576261
105.950000	0.576482
106.000000	0.576401
106.050000	0.573384
106.100000	0.570580
106.150000	0.570896
106.200000	0.571639
106.250000	0.572672
106.300000	0.573107
106.350000	0.572857
106.400000	0.573503
106.450000	0.574529
106.500000	0.575317
106.550000	0.576479
106.600000	0.577309
106.650000	0.577842
106.700000	0.575534
106.750000	0.571950
106.800000	0.571478
106.850000	0.572143
106.900000	0.573321
106.950000	0.573801
107.000000	0.574005
107.050000	0.574030
107.100000	0.574877
107.150000	0.575641
107.200000	0.576373
107.250000	0.577000
107.300000	0.577715
107.350000	0.576645
107.400000	0.572972
107.450000	0.571489
107.500000	0.571783
107.550000	0.572715
107.600000	0.573743
107.650000	0.574000
107.700000	0.573774
107.750000	0.574000
107.800000	0.574719
107.850000	0.575488
107.900000	0.576476
107.950000	0.576874
108.000000	0.577265
108.050000	0.575163
108.100000	0.571600
108.150000	0.570828
108.200000	0.571320
108.250000	0.572388
108.300000	0.572765
108.350000	0.572617
108.400000	0.572468
108.450000	0.572984
108.500000	0.574032
108.550000	0.574982
108.600000	0.575335
108.650000	0.576354
108.700000	0.576866
108.750000	0.575637
108.800000	0.571794
108.850000	0.570028
108.900000	0.570648
108.950000	0.571309
109.000000	0.571971
109.050000	0.572054
109.100000	0.571856
109.150000	0.572201
109.200000	0.572957
109.250000	0.573916
109.300000	0.574275
109.350000	0.575075
109.400000	0.575724
109.450000	0.575927
109.500000	0.573059
109.550000	0.570111
109.600000	0.570082
109.650000	0.570673
109.700000	0.571281
109.750000	0.571569
109.800000	0.571495
109.850000	0.571639
109.900000	0.572226
109.950000	0.573348
110.000000	0.573912
110.050000	0.574873
110.100000	0.575770
110.150000	0.576301
110.200000	0.574082
110.250000	0.571466
110.300000	0.571617
110.350000	0.572395
110.400000	0.573580
110.450000	0.573695
110.500000	0.573623
110.550000	0.573809
110.600000	0.574358
110.650000	0.575150
110.700000	0.575776
110.750000	0.576286
110.800000	0.577087
110.850000	0.577054
110.900000	0.573684
110.950000	0.571414
111.000000	0.571661
111.050000	0.572702
111.100000	0.573654
111.150000	0.573822
111.200000	0.573998
111.250000	0.574550
111.300000	0.575336
111.350000	0.576085
111.400000	0.576863
111.450000	0.577714
111.500000	0.577933
111.550000	0.575569
111.600000	0.572124
111.650000	0.571631
111.700000	0.572172
111.750000	0.573350
111.800000	0.573816
111.850000	0.573772
111.900000	0.574061
111.950000	0.574765
112.000000	0.575408
112.050000	0.575965
112.100000	0.576865
112.150000	0.577691
112.200000	0.576418
112.250000	0.572578
112.300000	0.571302
112.350000	0.571801
112.400000	0.572750
112.450000	0.573465
112.500000	0.573783
112.550000	0.573710
112.600000	0.574378
112.650000	0.575109
112.700000	0.575535
112.750000	0.576303
112.800000	0.576922
112.850000	0.577254
112.900000	0.574545
112.950000	0.571418
113.000000	0.571298
113.050000	0.572182
113.100000	0.573369
113.150000	0.573975
113.200000	0.573687
113.250000	0.573845
113.300000	0.574303
113.350000	0.575242
113.400000	0.575723
113.450000	0.576358
113.500000	0.577209
113.550000	0.577021
113.600000	0.573750
113.650000	0.570896
113.700000	0.571107
113.750000	0.572148
113.800000	0.572873
113.850000	0.573478
113.900000	0.573585
113.950000	0.573760
114.000000	0.574585
114.050000	0.575182
114.100000	0.575442
114.150000	0.576117
114.200000	0.576761
114.250000	0.576624
114.300000	0.573617
114.350000	0.570743
114.400000	0.570598
114.450000	0.571143
114.500000	0.572363
114.550000	0.572750
114.600000	0.572834
114.650000	0.573116
114.700000	0.573946
114.750000	0.574975
114.800000	0.575962
114.850000	0.576423
114.900000	0.577146
114.950000	0.576965
115.000000	0.573263
115.050000	0.570762
115.100000	0.570948
115.150000	0.571887
115.200000	0.572652
115.250000	0.572795
115.300000	0.572620
115.350000	0.573190
115.400000	0.573838
115.450000	0.574779
115.500000	0.575521
115.550000	0.576568
115.600000	0.576905
115.650000	0.575131
115.700000	0.571452
115.750000	0.570677
115.800000	0.571464
115.850000	0.572657
115.900000	0.573341
115.950000	0.573329
116.000000	0.573533
116.050000	0.574174
116.100000	0.574819
116.150000	0.575315
116.200000	0.575844
116.250000	0.576465
116.300000	0.575964
116.350000	0.572397
116.400000	0.569892
116.450000	0.570118
116.500000	0.570932
116.550000	0.571734
116.600000	0.572113
116.650000	0.571969
116.700000	0.572105
116.750000	0.572746
116.800000	0.573255
116.850000	0.573801
116.900000	0.574583
116.950000	0.575105
117.000000	0.573357
117.050000	0.569492
117.100000	0.568583
117.150000	0.569010
117.200000	0.570061
117.250000	0.570962
117.300000	0.571276
117.350000	0.571159
117.400000	0.571672
117.450000	0.572138
117.500000	0.572584
117.550000	0.572842
117.600000	0.573769
117.650000	0.573866
117.700000	0.571337
117.750000	0.568204
117.800000	0.567798
117.850000	0.568728
117.900000	0.569582
117.950000	0.570417
118.000000	0.570136
118.050000	0.569865
118.100000	0.570544
118.150000	0.571229
118.200000	0.571756
118.250000	0.572513
118.300000	0.573136
118.350000	0.573267
118.400000	0.570362
118.450000	0.567293
118.500000	0.567118
118.550000	0.568330
118.600000	0.569250
118.650000	0.569550
118.700000	0.569590
118.750000	0.569774
118.800000	0.570405
118.850000	0.571271
118.900000	0.571938
118.950000	0.572666
119.000000	0.573175
119.050000	0.571718
119.100000	0.567957
119.150000	0.566589
119.200000	0.567166
119.250000	0.567887
119.300000	0.568666
119.350000	0.568661
119.400000	0.568426
119.450000	0.569179
119.500000	0.569864
119.550000	0.570722
119.600000	0.571524
119.650000	0.572362
119.700000	0.571706
119.750000	0.567626
119.800000	0.565611
119.850000	0.565907
119.900000	0.566767
119.950000	0.567407
120.000000	0.567603
120.050000	0.567731
120.100000	0.568075
120.150000	0.568744
120.200000	0.569244
120.250000	0.569841
120.300000	0.570699
120.350000	0.570771
120.400000	0.567340
120.450000	0.564408
120.500000	0.563898
120.550000	0.564590
120.600000	0.565219
120.650000	0.565734
120.700000	0.565601
120.750000	0.565657
120.800000	0.566764
120.850000	0.567518
120.900000	0.568578
120.950000	0.569726
121.000000	0.570563
121.050000	0.568871
121.100000	0.565289
121.150000	0.564416
121.200000	0.564858
121.250000	0.565859
121.300000	0.566154
121.350000	0.566245
121.400000	0.565760
121.450000	0.566613
121.500000	0.567402
121.550000	0.568334
121.600000	0.569012
121.650000	0.570110
121.700000	0.570613
121.750000	0.567688
121.800000	0.564605
121.850000	0.564080
121.900000	0.565027
121.950000	0.565496
122.000000	0.566043
122.050000	0.565898
122.100000	0.565803
122.150000	0.566850
122.200000	0.567557
122.250000	0.568384
122.300000	0.569227
122.350000	0.570075
122.400000	0.569895
122.450000	0.566248
122.500000	0.564081
122.550000	0.564248
122.600000	0.565267
122.650000	0.566259
122.700000	0.566332
122.750000	0.566414
122.800000	0.566712
122.850000	0.567489
122.900000	0.568078
122.950000	0.568940
123.000000	0.569938
123.050000	0.570445
123.100000	0.567680
123.150000	0.564298
123.200000	0.563836
123.250000	0.564808
123.300000	0.565949
123.350000	0.566357
123.400000	0.566374
123.450000	0.566889
123.500000	0.568054
123.550000	0.568926
123.600000	0.568041
123.650000	0.562502
123.700000	0.546398
123.750000	0.519003
123.800000	0.463381
123.850000	0.361158
123.900000	0.271366
123.950000	0.234005
124.000000	0.200755
124.050000	0.110699
124.100000	0.080947
124.150000	0.104219
124.200000	1.117870
124.250000	1.279945
124.300000	0.400472
124.350000	0.171744
124.400000	0.107316
124.450000	0.043977
124.500000	0.021150
124.550000	0.011587
124.600000	0.006794
124.650000	0.004395
124.700000	0.001163
124.750000	0.000947
124.800000	0.001464
124.850000	0.001251
124.900000	0.000877
124.950000	0.000780
125.000000	0.000797
125.050000	0.000609
125.100000	0.000633
125.150000	0.000673
125.200000	0.000655
125.250000	0.000674
125.300000	0.000609
125.350000	0.000590
125.400000	0.000598
125.450000	0.000602
125.500000	0.000621
125.550000	0.000606
125.600000	0.000598
125.650000	0.000595
125.700000	0.000591
125.750000	0.000588
125.800000	0.000600
125.850000	0.000608
125.900000	0.000601
