0.000000	0.009750
0.050000	0.009761
0.100000	0.009745
0.150000	0.009736
0.200000	0.009743
0.250000	0.009760
0.300000	0.009783
0.350000	0.009814
0.400000	0.009810
0.450000	0.009755
0.500000	0.010060
0.550000	0.010821
0.600000	0.011902
0.650000	0.012668
0.700000	0.013321
0.750000	0.014933
0.800000	0.016987
0.850000	0.019569
0.900000	0.025923
0.950000	0.030137
1.000000	0.032760
1.050000	0.037036
1.100000	0.042583
1.150000	0.048832
1.200000	0.052237
1.250000	0.038299
1.300000	0.025303
1.350000	0.022611
1.400000	0.037527
1.450000	0.081670
1.500000	0.120270
1.550000	0.087464
1.600000	0.043121
1.650000	0.020424
1.700000	0.020113
1.750000	0.023839
1.800000	0.022320
1.850000	0.020163
1.900000	0.017783
1.950000	0.016562
2.000000	0.013018
2.050000	0.012436
2.100000	0.016254
2.150000	0.029599
2.200000	0.070557
2.250000	0.122720
2.300000	0.149771
2.350000	0.139281
2.400000	0.118145
2.450000	0.129788
2.500000	0.156676
2.550000	0.175215
2.600000	0.165602
2.650000	0.141883
2.700000	0.118829
2.750000	0.084154
2.800000	0.054339
2.850000	0.049561
2.900000	0.048899
2.950000	0.033242
3.000000	0.025701
3.050000	0.019864
3.100000	0.019468
3.150000	0.028312
3.200000	0.035726
3.250000	0.051576
3.300000	0.058316
3.350000	0.056107
3.400000	0.068780
3.450000	0.095076
3.500000	0.138411
3.550000	0.156267
3.600000	0.162207
3.650000	0.161474
3.700000	0.162032
3.750000	0.162549
3.800000	0.161349
3.850000	0.157865
3.900000	0.153789
3.950000	0.153452
4.000000	0.163194
4.050000	0.170225
4.100000	0.157602
4.150000	0.134849
4.200000	0.132749
4.250000	0.139012
4.300000	0.145883
4.350000	0.149017
4.400000	0.146345
4.450000	0.139126
4.500000	0.144898
4.550000	0.158281
4.600000	0.163214
4.650000	0.166936
4.700000	0.166979
4.750000	0.160700
4.800000	0.157455
4.850000	0.155507
4.900000	0.156043
4.950000	0.163653
5.000000	0.173664
5.050000	0.179414
5.100000	0.182815
5.150000	0.185371
5.200000	0.186374
5.250000	0.186802
5.300000	0.187493
5.350000	0.188343
5.400000	0.189374
5.450000	0.188724
5.500000	0.188265
5.550000	0.188846
5.600000	0.189113
5.650000	0.189765
5.700000	0.190162
5.750000	0.189856
5.800000	0.190294
5.850000	0.191648
5.900000	0.192557
5.950000	0.193121
6.000000	0.193542
6.050000	0.193138
6.100000	0.191704
6.150000	0.190965
6.200000	0.190985
6.250000	0.191221
6.300000	0.191309
6.350000	0.191433
6.400000	0.191003
6.450000	0.191146
6.500000	0.191837
6.550000	0.192807
6.600000	0.193264
6.650000	0.193244
6.700000	0.191702
6.750000	0.190530
6.800000	0.190563
6.850000	0.191883
6.900000	0.193299
6.950000	0.193945
7.000000	0.193925
7.050000	0.193447
7.100000	0.192827
7.150000	0.192626
7.200000	0.193039
7.250000	0.193714
7.300000	0.193261
7.350000	0.192315
7.400000	0.192715
7.450000	0.193615
7.500000	0.194580
7.550000	0.194980
7.600000	0.194610
7.650000	0.194382
7.700000	0.194663
7.750000	0.194806
7.800000	0.195158
7.850000	0.195549
7.900000	0.195431
7.950000	0.193997
8.000000	0.193230
8.050000	0.193761
8.100000	0.194694
8.150000	0.195496
8.200000	0.195638
8.250000	0.195599
8.300000	0.195681
8.350000	0.196034
8.400000	0.196565
8.450000	0.196628
8.500000	0.196774
8.550000	0.196819
8.600000	0.195473
8.650000	0.194697
8.700000	0.194938
8.750000	0.195712
8.800000	0.196398
8.850000	0.196199
8.900000	0.195727
8.950000	0.195327
9.000000	0.195470
9.050000	0.196131
9.100000	0.196620
9.150000	0.196962
9.200000	0.197180
9.250000	0.196376
9.300000	0.195057
9.350000	0.195097
9.400000	0.195573
9.450000	0.196007
9.500000	0.196317
9.550000	0.196424
9.600000	0.196561
9.650000	0.196993
9.700000	0.197379
9.750000	0.197660
9.800000	0.198159
9.850000	0.198584
9.900000	0.198485
9.950000	0.197154
10.000000	0.196391
10.050000	0.196557
10.100000	0.197277
10.150000	0.197738
10.200000	0.197897
10.250000	0.197853
10.300000	0.198004
10.350000	0.198314
10.400000	0.198604
10.450000	0.199016
10.500000	0.199523
10.550000	0.199631
10.600000	0.198492
10.650000	0.197546
10.700000	0.197685
10.750000	0.198308
10.800000	0.198894
10.850000	0.199011
10.900000	0.198914
10.950000	0.199026
11.000000	0.199437
11.050000	0.199789
11.100000	0.199896
11.150000	0.200008
11.200000	0.199788
11.250000	0.198632
11.300000	0.197900
11.350000	0.197985
11.400000	0.198379
11.450000	0.198813
11.500000	0.198915
11.550000	0.198918
11.600000	0.199024
11.650000	0.199307
11.700000	0.199606
11.750000	0.200030
11.800000	0.200365
11.850000	0.199585
11.900000	0.198128
11.950000	0.198004
12.000000	0.198473
12.050000	0.199014
12.100000	0.199205
12.150000	0.198968
12.200000	0.198882
12.250000	0.198928
12.300000	0.199192
12.350000	0.199458
12.400000	0.199965
12.450000	0.199715
12.500000	0.198158
12.550000	0.197428
12.600000	0.197663
12.650000	0.198186
12.700000	0.198528
12.750000	0.198426
12.800000	0.198406
12.850000	0.198653
12.900000	0.198973
12.950000	0.199219
13.000000	0.199460
13.050000	0.199694
13.100000	0.198482
13.150000	0.197338
13.200000	0.197398
13.250000	0.198061
13.300000	0.198704
13.350000	0.199110
13.400000	0.198986
13.450000	0.198889
13.500000	0.199245
13.550000	0.199653
13.600000	0.199944
13.650000	0.200128
13.700000	0.199504
13.750000	0.198110
13.800000	0.197833
13.850000	0.198219
13.900000	0.198789
13.950000	0.198986
14.000000	0.198914
14.050000	0.199038
14.100000	0.199329
14.150000	0.199698
14.200000	0.199838
14.250000	0.199958
14.300000	0.200171
14.350000	0.199131
14.400000	0.198256
14.450000	0.198273
14.500000	0.198718
14.550000	0.199136
14.600000	0.199266
14.650000	0.199162
14.700000	0.199267
14.750000	0.199500
14.800000	0.199779
14.850000	0.200050
14.900000	0.200274
14.950000	0.199891
15.000000	0.198475
15.050000	0.198005
15.100000	0.198114
15.150000	0.198534
15.200000	0.198936
15.250000	0.198871
15.300000	0.198639
15.350000	0.198803
15.400000	0.199165
15.450000	0.199446
15.500000	0.199593
15.550000	0.199651
15.600000	0.198600
15.650000	0.197394
15.700000	0.197430
15.750000	0.197842
15.800000	0.198234
15.850000	0.198461
15.900000	0.198398
15.950000	0.198305
16.000000	0.198655
16.050000	0.199267
16.100000	0.199607
16.150000	0.199678
16.200000	0.199639
16.250000	0.198314
16.300000	0.197130
16.350000	0.196841
16.400000	0.197132
16.450000	0.197689
16.500000	0.197936
16.550000	0.197716
16.600000	0.197584
16.650000	0.197925
16.700000	0.198310
16.750000	0.198574
16.800000	0.198587
16.850000	0.198854
16.900000	0.198018
16.950000	0.196490
17.000000	0.196288
17.050000	0.196622
17.100000	0.197169
17.150000	0.197432
17.200000	0.197269
17.250000	0.197231
17.300000	0.197501
17.350000	0.197794
17.400000	0.198024
17.450000	0.198157
17.500000	0.198236
17.550000	0.198440
17.600000	0.197270
17.650000	0.196085
17.700000	0.196107
17.750000	0.196503
17.800000	0.197007
17.850000	0.197132
17.900000	0.197069
17.950000	0.197119
18.000000	0.197394
18.050000	0.197842
18.100000	0.198153
18.150000	0.198068
18.200000	0.198272
18.250000	0.198667
18.300000	0.197617
18.350000	0.196437
18.400000	0.196368
18.450000	0.196737
18.500000	0.197344
18.550000	0.197500
18.600000	0.197219
18.650000	0.197233
18.700000	0.197504
18.750000	0.197838
18.800000	0.198070
18.850000	0.198086
18.900000	0.198283
18.950000	0.198158
19.000000	0.197005
19.050000	0.196471
19.100000	0.196674
19.150000	0.196967
19.200000	0.197387
19.250000	0.197414
19.300000	0.197135
19.350000	0.197167
19.400000	0.197550
19.450000	0.197914
19.500000	0.198049
19.550000	0.198207
19.600000	0.198278
19.650000	0.197592
19.700000	0.196417
19.750000	0.196505
19.800000	0.196984
19.850000	0.197462
19.900000	0.197482
19.950000	0.197374
20.000000	0.197284
20.050000	0.197475
20.100000	0.197778
20.150000	0.198015
20.200000	0.198175
20.250000	0.198371
20.300000	0.198106
20.350000	0.196667
20.400000	0.196227
20.450000	0.196521
20.500000	0.196872
20.550000	0.197295
20.600000	0.197293
20.650000	0.197163
20.700000	0.197451
20.750000	0.197772
20.800000	0.198047
20.850000	0.198366
20.900000	0.198574
20.950000	0.198713
21.000000	0.197749
21.050000	0.196463
21.100000	0.196420
21.150000	0.196713
21.200000	0.197109
21.250000	0.197107
21.300000	0.196969
21.350000	0.196954
21.400000	0.197274
21.450000	0.197539
21.500000	0.197836
21.550000	0.197999
21.600000	0.198312
21.650000	0.197874
21.700000	0.196284
21.750000	0.195933
21.800000	0.196288
21.850000	0.196741
21.900000	0.196788
21.950000	0.196689
22.000000	0.196670
22.050000	0.196833
22.100000	0.197058
22.150000	0.197080
22.200000	0.197341
22.250000	0.197937
22.300000	0.197827
22.350000	0.196190
22.400000	0.195613
22.450000	0.196321
22.500000	0.196965
22.550000	0.197179
22.600000	0.197248
22.650000	0.197108
22.700000	0.197227
22.750000	0.197476
22.800000	0.197730
22.850000	0.197808
22.900000	0.198235
22.950000	0.198136
23.000000	0.196662
23.050000	0.195922
23.100000	0.196085
23.150000	0.196224
23.200000	0.196527
23.250000	0.196712
23.300000	0.196707
23.350000	0.196848
23.400000	0.197070
23.450000	0.197302
23.500000	0.197464
23.550000	0.197673
23.600000	0.196880
23.650000	0.195594
23.700000	0.195408
23.750000	0.195773
23.800000	0.196394
23.850000	0.196487
23.900000	0.196218
23.950000	0.196313
24.000000	0.196618
24.050000	0.196914
24.100000	0.197109
24.150000	0.197195
24.200000	0.197187
24.250000	0.195858
24.300000	0.194776
24.350000	0.195124
24.400000	0.195706
24.450000	0.196187
24.500000	0.196206
24.550000	0.195854
24.600000	0.196080
24.650000	0.196470
24.700000	0.196495
24.750000	0.196494
24.800000	0.196856
24.850000	0.196720
24.900000	0.195147
24.950000	0.194300
25.000000	0.194581
25.050000	0.194890
25.100000	0.195132
25.150000	0.194983
25.200000	0.194983
25.250000	0.195145
25.300000	0.195352
25.350000	0.195586
25.400000	0.195720
25.450000	0.195919
25.500000	0.195932
25.550000	0.194544
25.600000	0.193616
25.650000	0.193856
25.700000	0.194192
25.750000	0.194416
25.800000	0.194480
25.850000	0.194372
25.900000	0.194646
25.950000	0.194923
26.000000	0.195029
26.050000	0.195202
26.100000	0.195303
26.150000	0.195710
26.200000	0.194981
26.250000	0.193369
26.300000	0.193163
26.350000	0.193478
26.400000	0.193877
26.450000	0.193921
26.500000	0.193755
26.550000	0.193833
26.600000	0.194015
26.650000	0.194269
26.700000	0.194432
26.750000	0.194619
26.800000	0.194831
26.850000	0.194519
26.900000	0.193211
26.950000	0.192653
27.000000	0.192868
27.050000	0.193048
27.100000	0.193267
27.150000	0.193296
27.200000	0.193374
27.250000	0.193520
27.300000	0.193640
27.350000	0.194007
27.400000	0.194228
27.450000	0.194294
27.500000	0.194366
27.550000	0.193502
27.600000	0.192236
27.650000	0.192209
27.700000	0.192371
27.750000	0.192774
27.800000	0.192749
27.850000	0.192465
27.900000	0.192630
27.950000	0.192888
28.000000	0.193278
28.050000	0.193499
28.100000	0.193541
28.150000	0.193786
28.200000	0.193365
28.250000	0.191750
28.300000	0.191514
28.350000	0.191941
28.400000	0.192326
28.450000	0.192492
28.500000	0.192407
28.550000	0.192318
28.600000	0.192593
28.650000	0.192739
28.700000	0.193044
28.750000	0.193279
28.800000	0.193286
28.850000	0.193426
28.900000	0.192613
28.950000	0.191341
29.000000	0.191410
29.050000	0.191642
29.100000	0.192024
29.150000	0.192217
29.200000	0.192117
29.250000	0.192211
29.300000	0.192377
29.350000	0.192530
29.400000	0.193042
29.450000	0.193235
29.500000	0.193301
29.550000	0.193317
29.600000	0.191846
29.650000	0.190963
29.700000	0.191315
29.750000	0.191519
29.800000	0.191914
29.850000	0.192003
29.900000	0.191958
29.950000	0.192131
30.000000	0.192507
30.050000	0.192967
30.100000	0.193189
30.150000	0.193173
30.200000	0.193660
30.250000	0.193371
30.300000	0.191805
30.350000	0.191475
30.400000	0.191917
30.450000	0.192126
30.500000	0.192407
30.550000	0.192345
30.600000	0.192391
30.650000	0.192742
30.700000	0.192862
30.750000	0.193067
30.800000	0.193273
30.850000	0.193548
30.900000	0.193414
30.950000	0.192145
31.000000	0.191645
31.050000	0.191864
31.100000	0.192200
31.150000	0.192545
31.200000	0.192538
31.250000	0.192372
31.300000	0.192366
31.350000	0.192497
31.400000	0.192679
31.450000	0.192734
31.500000	0.192660
31.550000	0.192522
31.600000	0.191279
31.650000	0.190446
31.700000	0.190763
31.750000	0.191074
31.800000	0.191248
31.850000	0.191348
31.900000	0.191438
31.950000	0.191778
32.000000	0.191906
32.050000	0.192076
32.100000	0.192249
32.150000	0.192395
32.200000	0.192665
32.250000	0.191349
32.300000	0.190550
32.350000	0.190883
32.400000	0.191233
32.450000	0.191542
32.500000	0.191570
32.550000	0.191423
32.600000	0.191509
32.650000	0.191750
32.700000	0.191989
32.750000	0.192159
32.800000	0.192397
32.850000	0.192602
32.900000	0.191413
32.950000	0.190337
33.000000	0.190459
33.050000	0.190728
33.100000	0.191035
33.150000	0.191206
33.200000	0.191141
33.250000	0.191231
33.300000	0.191525
33.350000	0.191755
33.400000	0.191962
33.450000	0.192031
33.500000	0.192378
33.550000	0.192116
33.600000	0.190689
33.650000	0.190256
33.700000	0.190610
33.750000	0.190919
33.800000	0.191300
33.850000	0.191250
33.900000	0.191326
33.950000	0.191482
34.000000	0.191645
34.050000	0.192047
34.100000	0.192133
34.150000	0.192329
34.200000	0.192726
34.250000	0.191805
34.300000	0.190580
34.350000	0.190436
34.400000	0.190612
34.450000	0.190968
34.500000	0.191263
34.550000	0.191054
34.600000	0.191086
34.650000	0.191416
34.700000	0.191525
34.750000	0.191695
34.800000	0.191833
34.850000	0.192003
34.900000	0.191835
34.950000	0.190301
35.000000	0.189680
35.050000	0.189841
35.100000	0.189985
35.150000	0.190608
35.200000	0.190851
35.250000	0.190688
35.300000	0.190829
35.350000	0.191302
35.400000	0.191682
35.450000	0.191867
35.500000	0.192011
35.550000	0.192190
35.600000	0.192148
35.650000	0.191014
35.700000	0.190137
35.750000	0.190309
35.800000	0.190521
35.850000	0.190836
35.900000	0.190995
35.950000	0.190823
36.000000	0.190920
36.050000	0.191182
36.100000	0.191544
36.150000	0.191863
36.200000	0.192007
36.250000	0.192104
36.300000	0.192247
36.350000	0.191357
36.400000	0.190272
36.450000	0.190281
36.500000	0.190557
36.550000	0.190974
36.600000	0.191168
36.650000	0.190981
36.700000	0.191038
36.750000	0.191194
36.800000	0.191538
36.850000	0.191936
36.900000	0.192095
36.950000	0.192114
37.000000	0.192360
37.050000	0.191703
37.100000	0.190357
37.150000	0.190207
37.200000	0.190467
37.250000	0.190785
37.300000	0.190996
37.350000	0.191042
37.400000	0.191064
37.450000	0.191405
37.500000	0.191673
37.550000	0.191891
37.600000	0.192027
37.650000	0.192260
37.700000	0.192439
37.750000	0.192147
37.800000	0.190849
37.850000	0.190453
37.900000	0.190779
37.950000	0.191134
38.000000	0.191448
38.050000	0.191470
38.100000	0.191418
38.150000	0.191704
38.200000	0.191885
38.250000	0.192167
38.300000	0.192471
38.350000	0.192515
38.400000	0.192781
38.450000	0.192922
38.500000	0.191783
38.550000	0.190821
38.600000	0.190994
38.650000	0.191249
38.700000	0.191544
38.750000	0.191713
38.800000	0.191721
38.850000	0.191947
38.900000	0.192338
38.950000	0.192727
39.000000	0.193081
39.050000	0.193156
39.100000	0.193300
39.150000	0.193597
39.200000	0.192946
39.250000	0.191792
39.300000	0.191729
39.350000	0.191928
39.400000	0.192248
39.450000	0.192472
39.500000	0.192435
39.550000	0.192533
39.600000	0.192869
39.650000	0.193253
39.700000	0.193484
39.750000	0.193636
39.800000	0.194007
39.850000	0.193989
39.900000	0.192959
39.950000	0.192436
40.000000	0.192518
40.050000	0.192762
40.100000	0.193102
40.150000	0.193011
40.200000	0.192978
40.250000	0.192927
40.300000	0.193099
40.350000	0.193365
40.400000	0.193348
40.450000	0.193454
40.500000	0.193462
40.550000	0.192193
40.600000	0.191468
40.650000	0.191540
40.700000	0.191715
40.750000	0.191928
40.800000	0.191941
40.850000	0.191962
40.900000	0.192039
40.950000	0.192399
41.000000	0.192823
41.050000	0.193188
41.100000	0.193596
41.150000	0.193466
41.200000	0.192069
41.250000	0.191334
41.300000	0.191598
41.350000	0.191714
41.400000	0.191812
41.450000	0.192045
41.500000	0.191904
41.550000	0.191877
41.600000	0.191973
41.650000	0.192400
41.700000	0.192828
41.750000	0.192685
41.800000	0.192791
41.850000	0.192067
41.900000	0.190668
41.950000	0.190656
42.000000	0.190849
42.050000	0.191046
42.100000	0.191274
42.150000	0.191256
42.200000	0.191272
42.250000	0.191517
42.300000	0.191794
42.350000	0.192057
42.400000	0.192203
42.450000	0.192374
42.500000	0.192347
42.550000	0.190925
42.600000	0.190113
42.650000	0.190217
42.700000	0.190402
42.750000	0.190780
42.800000	0.190894
42.850000	0.190798
42.900000	0.191059
42.950000	0.191324
43.000000	0.191615
43.050000	0.192002
43.100000	0.192235
43.150000	0.192241
43.200000	0.192316
43.250000	0.191055
43.300000	0.189789
43.350000	0.189887
43.400000	0.189949
43.450000	0.190279
43.500000	0.190561
43.550000	0.190481
43.600000	0.190600
43.650000	0.190970
43.700000	0.191284
43.750000	0.191729
43.800000	0.191894
43.850000	0.191816
43.900000	0.192135
43.950000	0.191699
44.000000	0.190402
44.050000	0.190271
44.100000	0.190442
44.150000	0.190832
44.200000	0.191178
44.250000	0.191004
44.300000	0.190952
44.350000	0.191182
44.400000	0.191226
44.450000	0.191426
44.500000	0.191567
44.550000	0.191565
44.600000	0.191705
44.650000	0.191220
44.700000	0.189949
44.750000	0.189643
44.800000	0.189786
44.850000	0.190042
44.900000	0.190395
44.950000	0.190489
45.000000	0.190345
45.050000	0.190477
45.100000	0.190841
45.150000	0.191127
45.200000	0.191267
45.250000	0.191377
45.300000	0.191661
45.350000	0.191157
45.400000	0.189898
45.450000	0.189685
45.500000	0.189892
45.550000	0.190144
45.600000	0.190386
45.650000	0.190414
45.700000	0.190330
45.750000	0.190494
45.800000	0.190823
45.850000	0.191104
45.900000	0.191408
45.950000	0.191449
46.000000	0.191725
46.050000	0.191517
46.100000	0.190243
46.150000	0.189566
46.200000	0.189686
46.250000	0.189972
46.300000	0.190315
46.350000	0.190411
46.400000	0.190363
46.450000	0.190531
46.500000	0.190871
46.550000	0.191170
46.600000	0.191550
46.650000	0.191582
46.700000	0.191887
46.750000	0.191613
46.800000	0.190242
46.850000	0.189795
46.900000	0.190041
46.950000	0.190226
47.000000	0.190599
47.050000	0.190771
47.100000	0.190728
47.150000	0.190938
47.200000	0.191195
47.250000	0.191562
47.300000	0.191940
47.350000	0.192066
47.400000	0.192333
47.450000	0.192371
47.500000	0.191193
47.550000	0.190442
47.600000	0.190684
47.650000	0.191001
47.700000	0.191427
47.750000	0.191450
47.800000	0.191313
47.850000	0.191536
47.900000	0.191933
47.950000	0.192205
48.000000	0.192364
48.050000	0.192654
48.100000	0.192787
48.150000	0.192460
48.200000	0.191247
48.250000	0.190804
48.300000	0.190931
48.350000	0.191128
48.400000	0.191467
48.450000	0.191431
48.500000	0.191285
48.550000	0.191489
48.600000	0.191900
48.650000	0.192179
48.700000	0.192256
48.750000	0.192461
48.800000	0.192322
48.850000	0.190924
48.900000	0.190214
48.950000	0.190328
49.000000	0.190445
49.050000	0.190876
49.100000	0.191111
49.150000	0.190926
49.200000	0.191123
49.250000	0.191441
49.300000	0.191689
49.350000	0.191833
49.400000	0.192045
49.450000	0.191818
49.500000	0.190427
49.550000	0.189965
49.600000	0.190324
49.650000	0.190618
49.700000	0.191042
49.750000	0.190886
49.800000	0.190842
49.850000	0.190988
49.900000	0.191194
49.950000	0.191450
50.000000	0.191620
50.050000	0.191911
50.100000	0.191574
50.150000	0.190227
50.200000	0.189821
50.250000	0.189913
50.300000	0.190226
50.350000	0.190515
50.400000	0.190497
50.450000	0.190452
50.500000	0.190785
50.550000	0.190971
50.600000	0.191117
50.650000	0.191359
50.700000	0.191626
50.750000	0.191316
50.800000	0.189885
50.850000	0.189408
50.900000	0.189647
50.950000	0.189977
51.000000	0.190334
51.050000	0.190270
51.100000	0.190263
51.150000	0.190540
51.200000	0.190728
51.250000	0.191097
51.300000	0.191363
51.350000	0.191638
51.400000	0.191850
51.450000	0.190532
51.500000	0.189603
51.550000	0.189782
51.600000	0.190132
51.650000	0.190360
51.700000	0.190514
51.750000	0.190470
51.800000	0.190624
51.850000	0.190843
51.900000	0.191176
51.950000	0.191468
52.000000	0.191631
52.050000	0.191782
52.100000	0.191132
52.150000	0.189964
52.200000	0.189691
52.250000	0.190035
52.300000	0.190432
52.350000	0.190694
52.400000	0.190523
52.450000	0.190622
52.500000	0.191041
52.550000	0.191203
52.600000	0.191419
52.650000	0.191571
52.700000	0.191692
52.750000	0.191306
52.800000	0.190031
52.850000	0.189470
52.900000	0.189545
52.950000	0.189609
53.000000	0.190133
53.050000	0.190134
53.100000	0.190158
53.150000	0.190494
53.200000	0.190842
53.250000	0.191212
53.300000	0.191426
53.350000	0.191634
53.400000	0.191897
53.450000	0.191241
53.500000	0.190083
53.550000	0.189914
53.600000	0.189992
53.650000	0.190274
53.700000	0.190627
53.750000	0.190578
53.800000	0.190590
53.850000	0.190631
53.900000	0.191012
53.950000	0.191425
54.000000	0.191520
54.050000	0.191689
54.100000	0.191929
54.150000	0.191019
54.200000	0.189805
54.250000	0.189699
54.300000	0.190031
54.350000	0.190302
54.400000	0.190521
54.450000	0.190638
54.500000	0.190713
54.550000	0.190830
54.600000	0.191138
54.650000	0.191571
54.700000	0.191593
54.750000	0.191801
54.800000	0.191944
54.850000	0.190756
54.900000	0.189823
54.950000	0.190064
55.000000	0.190319
55.050000	0.190706
55.100000	0.190868
55.150000	0.190767
55.200000	0.190903
55.250000	0.191229
55.300000	0.191527
55.350000	0.191795
55.400000	0.191835
55.450000	0.192224
55.500000	0.191939
55.550000	0.190504
55.600000	0.190108
55.650000	0.190470
55.700000	0.190701
55.750000	0.191104
55.800000	0.191195
55.850000	0.191271
55.900000	0.191545
55.950000	0.191820
56.000000	0.192230
56.050000	0.192480
56.100000	0.192641
56.150000	0.192698
56.200000	0.191524
56.250000	0.191013
56.300000	0.191245
56.350000	0.191556
56.400000	0.192057
56.450000	0.191951
56.500000	0.191767
56.550000	0.191819
56.600000	0.192133
56.650000	0.192398
56.700000	0.192449
56.750000	0.192680
56.800000	0.192752
56.850000	0.191665
56.900000	0.190811
56.950000	0.190907
57.000000	0.191103
57.050000	0.191395
57.100000	0.191564
57.150000	0.191549
57.200000	0.191701
57.250000	0.191938
57.300000	0.192213
57.350000	0.192512
57.400000	0.192639
57.450000	0.192883
57.500000	0.192024
57.550000	0.190938
57.600000	0.190930
57.650000	0.191225
57.700000	0.191630
57.750000	0.191776
57.800000	0.191715
57.850000	0.191782
57.900000	0.192023
57.950000	0.192259
58.000000	0.192400
58.050000	0.192565
58.100000	0.192842
58.150000	0.192123
58.200000	0.190780
58.250000	0.190649
58.300000	0.190889
58.350000	0.191226
58.400000	0.191427
58.450000	0.191466
58.500000	0.191492
58.550000	0.191787
58.600000	0.192072
58.650000	0.192384
58.700000	0.192512
58.750000	0.192809
58.800000	0.192413
58.850000	0.191023
58.900000	0.190609
58.950000	0.190683
59.000000	0.190901
59.050000	0.191342
59.100000	0.191411
59.150000	0.191388
59.200000	0.191737
59.250000	0.192196
59.300000	0.192454
59.350000	0.192702
59.400000	0.193056
59.450000	0.193136
59.500000	0.191925
59.550000	0.191145
59.600000	0.191379
59.650000	0.191696
59.700000	0.192030
59.750000	0.192159
59.800000	0.192102
59.850000	0.192199
59.900000	0.192475
59.950000	0.192725
60.000000	0.192886
60.050000	0.193089
60.100000	0.193287
60.150000	0.192376
60.200000	0.191257
60.250000	0.191290
60.300000	0.191472
60.350000	0.191797
60.400000	0.192122
60.450000	0.191961
60.500000	0.192020
60.550000	0.192372
60.600000	0.192618
60.650000	0.192796
60.700000	0.192898
60.750000	0.193131
60.800000	0.192420
60.850000	0.191154
60.900000	0.190891
60.950000	0.191185
61.000000	0.191511
61.050000	0.191688
61.100000	0.191600
61.150000	0.191500
61.200000	0.191817
61.250000	0.192098
61.300000	0.192478
61.350000	0.192748
61.400000	0.192890
61.450000	0.192479
61.500000	0.191194
61.550000	0.190768
61.600000	0.190899
61.650000	0.191304
61.700000	0.191660
61.750000	0.191654
61.800000	0.191731
61.850000	0.191889
61.900000	0.192221
61.950000	0.192477
62.000000	0.192695
62.050000	0.192955
62.100000	0.193111
62.150000	0.192180
62.200000	0.190973
62.250000	0.190902
62.300000	0.191255
62.350000	0.191603
62.400000	0.191890
62.450000	0.191925
62.500000	0.191958
62.550000	0.192222
62.600000	0.192535
62.650000	0.192787
62.700000	0.192877
62.750000	0.193191
62.800000	0.193098
62.850000	0.191788
62.900000	0.191198
62.950000	0.191444
63.000000	0.191647
63.050000	0.192081
63.100000	0.192303
63.150000	0.192187
63.200000	0.192293
63.250000	0.192679
63.300000	0.193009
63.350000	0.193231
63.400000	0.193470
63.450000	0.193827
63.500000	0.192953
63.550000	0.191716
63.600000	0.191532
63.650000	0.191655
63.700000	0.192104
63.750000	0.192412
63.800000	0.192417
63.850000	0.192446
63.900000	0.192748
63.950000	0.193127
64.000000	0.193412
64.050000	0.193779
64.100000	0.193964
64.150000	0.193604
64.200000	0.192446
64.250000	0.191867
64.300000	0.192085
64.350000	0.192485
64.400000	0.192765
64.450000	0.192682
64.500000	0.192632
64.550000	0.192978
64.600000	0.193432
64.650000	0.193476
64.700000	0.193509
64.750000	0.193879
64.800000	0.193584
64.850000	0.192109
64.900000	0.191511
64.950000	0.191714
65.000000	0.191839
65.050000	0.192223
65.100000	0.192126
65.150000	0.192048
65.200000	0.192325
65.250000	0.192616
65.300000	0.192827
65.350000	0.193034
65.400000	0.193346
65.450000	0.193258
65.500000	0.191909
65.550000	0.191233
65.600000	0.191392
65.650000	0.191646
65.700000	0.192058
65.750000	0.192065
65.800000	0.191992
65.850000	0.192199
65.900000	0.192491
65.950000	0.192736
66.000000	0.192946
66.050000	0.193160
66.100000	0.193304
66.150000	0.192028
66.200000	0.191036
66.250000	0.191289
66.300000	0.191597
66.350000	0.191933
66.400000	0.192123
66.450000	0.192085
66.500000	0.192182
66.550000	0.192436
66.600000	0.192804
66.650000	0.193164
66.700000	0.193304
66.750000	0.193526
66.800000	0.192906
66.850000	0.191612
66.900000	0.191474
66.950000	0.191701
67.000000	0.192153
67.050000	0.192422
67.100000	0.192171
67.150000	0.192352
67.200000	0.192691
67.250000	0.193026
67.300000	0.193330
67.350000	0.193522
67.400000	0.193814
67.450000	0.193431
67.500000	0.192267
67.550000	0.191978
67.600000	0.192257
67.650000	0.192635
67.700000	0.192930
67.750000	0.192864
67.800000	0.192791
67.850000	0.193065
67.900000	0.193283
67.950000	0.193603
68.000000	0.193806
68.050000	0.194051
68.100000	0.193873
68.150000	0.192576
68.200000	0.191921
68.250000	0.192138
68.300000	0.192365
68.350000	0.192634
68.400000	0.192695
68.450000	0.192659
68.500000	0.192835
68.550000	0.193110
68.600000	0.193497
68.650000	0.193827
68.700000	0.194124
68.750000	0.194037
68.800000	0.192876
68.850000	0.192235
68.900000	0.192538
68.950000	0.192744
69.000000	0.193205
69.050000	0.193277
69.100000	0.193196
69.150000	0.193417
69.200000	0.193717
69.250000	0.194114
69.300000	0.194254
69.350000	0.194501
69.400000	0.194797
69.450000	0.193762
69.500000	0.192621
69.550000	0.192766
69.600000	0.192998
69.650000	0.193346
69.700000	0.193625
69.750000	0.193535
69.800000	0.193596
69.850000	0.193951
69.900000	0.194249
69.950000	0.194429
70.000000	0.194701
70.050000	0.195054
70.100000	0.194465
70.150000	0.193054
70.200000	0.193016
70.250000	0.193413
70.300000	0.193635
70.350000	0.194029
70.400000	0.194199
70.450000	0.194224
70.500000	0.194512
70.550000	0.194868
70.600000	0.195167
70.650000	0.195240
70.700000	0.195537
70.750000	0.195225
70.800000	0.193922
70.850000	0.193534
70.900000	0.193841
70.950000	0.194353
71.000000	0.194695
71.050000	0.194655
71.100000	0.194753
71.150000	0.194996
71.200000	0.195236
71.250000	0.195617
71.300000	0.196037
71.350000	0.196340
71.400000	0.195415
71.450000	0.194330
71.500000	0.194324
71.550000	0.194553
71.600000	0.194900
71.650000	0.195078
71.700000	0.195063
71.750000	0.195130
71.800000	0.195374
71.850000	0.195678
71.900000	0.195866
71.950000	0.196175
72.000000	0.195977
72.050000	0.194857
72.100000	0.194036
72.150000	0.194180
72.200000	0.194331
72.250000	0.194821
72.300000	0.194882
72.350000	0.194785
72.400000	0.194937
72.450000	0.195191
72.500000	0.195411
72.550000	0.195642
72.600000	0.195936
72.650000	0.195467
72.700000	0.194133
72.750000	0.193829
72.800000	0.194151
72.850000	0.194457
72.900000	0.194833
72.950000	0.194849
73.000000	0.194866
73.050000	0.195081
73.100000	0.195232
73.150000	0.195557
73.200000	0.195720
73.250000	0.195911
73.300000	0.195006
73.350000	0.193807
73.400000	0.193679
73.450000	0.194034
73.500000	0.194379
73.550000	0.194609
73.600000	0.194561
73.650000	0.194676
73.700000	0.194932
73.750000	0.195184
73.800000	0.195512
73.850000	0.195714
73.900000	0.196011
73.950000	0.195388
74.000000	0.193974
74.050000	0.193872
74.100000	0.194049
74.150000	0.194332
74.200000	0.194700
74.250000	0.194869
74.300000	0.194962
74.350000	0.195007
74.400000	0.195412
74.450000	0.195794
74.500000	0.195776
74.550000	0.195953
74.600000	0.196199
74.650000	0.194864
74.700000	0.193712
74.750000	0.194043
74.800000	0.194420
74.850000	0.194873
74.900000	0.195065
74.950000	0.195040
75.000000	0.195224
75.050000	0.195438
75.100000	0.195767
75.150000	0.196031
75.200000	0.196224
75.250000	0.196478
75.300000	0.196375
75.350000	0.195107
75.400000	0.194603
75.450000	0.194813
75.500000	0.195124
75.550000	0.195474
75.600000	0.195459
75.650000	0.195385
75.700000	0.195534
75.750000	0.195754
75.800000	0.196079
75.850000	0.196265
75.900000	0.196408
75.950000	0.196639
76.000000	0.196051
76.050000	0.194740
76.100000	0.194550
76.150000	0.194740
76.200000	0.195015
76.250000	0.195262
76.300000	0.195124
76.350000	0.195157
76.400000	0.195325
76.450000	0.195522
76.500000	0.195799
76.550000	0.195873
76.600000	0.196094
76.650000	0.196093
76.700000	0.194955
76.750000	0.194190
76.800000	0.194358
76.850000	0.194654
76.900000	0.194977
76.950000	0.195078
77.000000	0.194925
77.050000	0.195082
77.100000	0.195339
77.150000	0.195609
77.200000	0.195807
77.250000	0.196018
77.300000	0.196311
77.350000	0.195531
77.400000	0.194260
77.450000	0.194257
77.500000	0.194514
77.550000	0.194961
77.600000	0.195257
77.650000	0.195125
77.700000	0.195312
77.750000	0.195524
77.800000	0.195745
77.850000	0.196067
77.900000	0.196138
77.950000	0.196401
78.000000	0.196154
78.050000	0.194789
78.100000	0.194370
78.150000	0.194542
78.200000	0.194865
78.250000	0.195121
78.300000	0.195130
78.350000	0.195148
78.400000	0.195422
78.450000	0.195724
78.500000	0.195870
78.550000	0.196130
78.600000	0.196461
78.650000	0.196377
78.700000	0.195062
78.750000	0.194344
78.800000	0.194736
78.850000	0.194955
78.900000	0.195236
78.950000	0.195409
79.000000	0.195473
79.050000	0.195605
79.100000	0.195812
79.150000	0.196176
79.200000	0.196356
79.250000	0.196514
79.300000	0.196361
79.350000	0.195136
79.400000	0.194400
79.450000	0.194557
79.500000	0.194831
79.550000	0.195220
79.600000	0.195240
79.650000	0.195261
79.700000	0.195410
79.750000	0.195610
79.800000	0.195935
79.850000	0.196270
79.900000	0.196525
79.950000	0.196209
80.000000	0.194902
80.050000	0.194370
80.100000	0.194432
80.150000	0.194795
80.200000	0.195122
80.250000	0.195113
80.300000	0.195015
80.350000	0.195286
80.400000	0.195598
80.450000	0.195805
80.500000	0.195966
80.550000	0.196188
80.600000	0.195344
80.650000	0.194045
80.700000	0.194003
80.750000	0.194163
80.800000	0.194495
80.850000	0.194782
80.900000	0.194688
80.950000	0.194667
81.000000	0.194944
81.050000	0.195269
81.100000	0.195505
81.150000	0.195581
81.200000	0.195761
81.250000	0.194744
81.300000	0.193579
81.350000	0.193558
81.400000	0.193964
81.450000	0.194376
81.500000	0.194586
81.550000	0.194464
81.600000	0.194550
81.650000	0.194767
81.700000	0.194991
81.750000	0.195304
81.800000	0.195422
81.850000	0.195698
81.900000	0.194802
81.950000	0.193552
82.000000	0.193537
82.050000	0.193804
82.100000	0.194232
82.150000	0.194409
82.200000	0.194266
82.250000	0.194441
82.300000	0.194739
82.350000	0.195041
82.400000	0.195326
82.450000	0.195560
82.500000	0.195711
82.550000	0.194982
82.600000	0.193585
82.650000	0.193514
82.700000	0.193692
82.750000	0.194015
82.800000	0.194324
82.850000	0.194339
82.900000	0.194588
82.950000	0.194799
83.000000	0.194987
83.050000	0.195314
83.100000	0.195548
83.150000	0.195844
83.200000	0.195416
83.250000	0.194100
83.300000	0.193609
83.350000	0.193721
83.400000	0.194037
83.450000	0.194336
83.500000	0.194393
83.550000	0.194414
83.600000	0.194610
83.650000	0.194881
83.700000	0.195252
83.750000	0.195484
83.800000	0.195795
83.850000	0.195704
83.900000	0.194304
83.950000	0.193761
84.000000	0.193988
84.050000	0.194216
84.100000	0.194597
84.150000	0.194598
84.200000	0.194585
84.250000	0.194795
84.300000	0.194979
84.350000	0.195283
84.400000	0.195431
84.450000	0.195748
84.500000	0.195458
84.550000	0.193987
84.600000	0.193457
84.650000	0.193850
84.700000	0.194066
84.750000	0.194348
84.800000	0.194405
84.850000	0.194363
84.900000	0.194551
84.950000	0.194920
85.000000	0.195325
85.050000	0.195482
85.100000	0.195713
85.150000	0.195334
85.200000	0.194024
85.250000	0.193602
85.300000	0.194033
85.350000	0.194263
85.400000	0.194559
85.450000	0.194538
85.500000	0.194454
85.550000	0.194685
85.600000	0.195079
85.650000	0.195378
85.700000	0.195472
85.750000	0.195824
85.800000	0.195522
85.850000	0.194009
85.900000	0.193448
85.950000	0.193978
86.000000	0.194327
86.050000	0.194661
86.100000	0.194659
86.150000	0.194630
86.200000	0.194938
86.250000	0.195098
86.300000	0.195451
86.350000	0.195778
86.400000	0.195957
86.450000	0.196051
86.500000	0.194853
86.550000	0.193783
86.600000	0.194004
86.650000	0.194253
86.700000	0.194618
86.750000	0.194876
86.800000	0.194764
86.850000	0.194931
86.900000	0.195215
86.950000	0.195596
87.000000	0.195937
87.050000	0.196150
87.100000	0.196434
87.150000	0.195899
87.200000	0.194568
87.250000	0.194465
87.300000	0.194690
87.350000	0.195019
87.400000	0.195364
87.450000	0.195323
87.500000	0.195207
87.550000	0.195407
87.600000	0.195941
87.650000	0.196285
87.700000	0.196470
87.750000	0.196827
87.800000	0.196149
87.850000	0.194759
87.900000	0.194619
87.950000	0.194907
88.000000	0.195235
88.050000	0.195444
88.100000	0.195428
88.150000	0.195495
88.200000	0.195740
88.250000	0.196072
88.300000	0.196290
88.350000	0.196620
88.400000	0.196551
88.450000	0.195299
88.500000	0.194406
88.550000	0.194547
88.600000	0.194820
88.650000	0.195045
88.700000	0.195132
88.750000	0.195039
88.800000	0.195101
88.850000	0.195329
88.900000	0.195519
88.950000	0.195756
89.000000	0.195875
89.050000	0.195016
89.100000	0.193800
89.150000	0.193854
89.200000	0.194114
89.250000	0.194408
89.300000	0.194766
89.350000	0.194795
89.400000	0.194712
89.450000	0.194916
89.500000	0.195172
89.550000	0.195477
89.600000	0.195740
89.650000	0.195226
89.700000	0.193800
89.750000	0.193398
89.800000	0.193635
89.850000	0.193955
89.900000	0.194317
89.950000	0.194237
90.000000	0.194037
90.050000	0.194350
90.100000	0.194634
90.150000	0.194813
90.200000	0.195035
90.250000	0.195247
90.300000	0.194396
90.350000	0.192992
90.400000	0.192965
90.450000	0.193408
90.500000	0.193739
90.550000	0.194069
90.600000	0.195242
90.650000	0.197673
90.700000	0.198029
90.750000	0.198323
90.800000	0.198579
90.850000	0.198707
90.900000	0.198986
90.950000	0.197854
91.000000	0.196566
91.050000	0.196693
91.100000	0.196988
91.150000	0.197317
91.200000	0.197605
91.250000	0.197514
91.300000	0.197659
91.350000	0.197907
91.400000	0.198266
91.450000	0.198457
91.500000	0.198643
91.550000	0.198768
91.600000	0.197711
91.650000	0.196528
91.700000	0.196715
91.750000	0.196983
91.800000	0.197343
91.850000	0.197490
91.900000	0.197463
91.950000	0.197518
92.000000	0.197744
92.050000	0.198144
92.100000	0.198364
92.150000	0.198633
92.200000	0.198744
92.250000	0.197607
92.300000	0.196586
92.350000	0.196660
92.400000	0.196962
92.450000	0.197348
92.500000	0.197471
92.550000	0.197318
92.600000	0.197453
92.650000	0.197767
92.700000	0.198114
92.750000	0.198293
92.800000	0.198456
92.850000	0.198612
92.900000	0.197626
92.950000	0.196430
93.000000	0.196370
93.050000	0.196600
93.100000	0.197007
93.150000	0.196973
93.200000	0.196847
93.250000	0.196960
93.300000	0.197196
93.350000	0.197549
93.400000	0.197830
93.450000	0.197927
93.500000	0.198229
93.550000	0.198120
93.600000	0.196673
93.650000	0.196004
93.700000	0.196234
93.750000	0.196488
93.800000	0.196874
93.850000	0.196839
93.900000	0.196777
93.950000	0.197026
94.000000	0.197429
94.050000	0.197699
94.100000	0.197931
94.150000	0.198143
94.200000	0.198439
94.250000	0.198120
94.300000	0.196702
94.350000	0.196219
94.400000	0.196385
94.450000	0.196776
94.500000	0.197091
94.550000	0.197088
94.600000	0.197137
94.650000	0.197295
94.700000	0.197728
94.750000	0.198032
94.800000	0.198232
94.850000	0.198435
94.900000	0.198802
94.950000	0.198428
95.000000	0.196965
95.050000	0.196678
95.100000	0.197027
95.150000	0.197434
95.200000	0.197713
95.250000	0.197709
95.300000	0.197637
95.350000	0.197939
95.400000	0.198321
95.450000	0.198688
95.500000	0.198939
95.550000	0.199260
95.600000	0.199388
95.650000	0.198163
95.700000	0.197084
95.750000	0.197250
95.800000	0.197676
95.850000	0.198009
95.900000	0.198116
95.950000	0.198004
96.000000	0.198196
96.050000	0.198480
96.100000	0.198824
96.150000	0.199044
96.200000	0.199292
96.250000	0.199450
96.300000	0.198275
96.350000	0.197265
96.400000	0.197293
96.450000	0.197665
96.500000	0.197963
96.550000	0.198112
96.600000	0.197972
96.650000	0.198024
96.700000	0.198339
96.750000	0.198555
96.800000	0.198975
96.850000	0.199331
96.900000	0.199259
96.950000	0.197954
97.000000	0.197224
97.050000	0.197445
97.100000	0.197778
97.150000	0.198126
97.200000	0.198266
97.250000	0.198108
97.300000	0.198256
97.350000	0.198566
97.400000	0.199040
97.450000	0.199676
97.500000	0.199832
97.550000	0.199038
97.600000	0.197624
97.650000	0.197341
97.700000	0.197564
97.750000	0.197806
97.800000	0.198109
97.850000	0.198002
97.900000	0.195396
97.950000	0.194732
98.000000	0.194993
98.050000	0.195331
98.100000	0.195576
98.150000	0.195751
98.200000	0.194627
98.250000	0.193424
98.300000	0.193443
98.350000	0.193781
98.400000	0.194110
98.450000	0.194309
98.500000	0.194257
98.550000	0.194417
98.600000	0.194685
98.650000	0.195025
98.700000	0.195287
98.750000	0.195667
98.800000	0.195617
98.850000	0.194308
98.900000	0.193452
98.950000	0.193636
99.000000	0.193867
99.050000	0.194196
99.100000	0.194274
99.150000	0.194230
99.200000	0.194338
99.250000	0.194593
99.300000	0.194929
99.350000	0.195229
99.400000	0.195360
99.450000	0.194979
99.500000	0.193464
99.550000	0.192966
99.600000	0.193267
99.650000	0.193608
99.700000	0.193968
99.750000	0.193865
99.800000	0.193814
99.850000	0.194090
99.900000	0.194373
99.950000	0.194609
100.000000	0.194862
100.050000	0.194990
100.100000	0.193670
100.150000	0.192560
100.200000	0.192426
100.250000	0.192556
100.300000	0.192975
100.350000	0.193084
100.400000	0.192903
100.450000	0.193049
100.500000	0.193345
100.550000	0.193646
100.600000	0.193829
100.650000	0.194012
100.700000	0.193998
100.750000	0.192669
100.800000	0.191699
100.850000	0.191798
100.900000	0.192014
100.950000	0.192334
101.000000	0.192440
101.050000	0.192371
101.100000	0.192559
101.150000	0.192825
101.200000	0.193284
101.250000	0.193502
101.300000	0.193665
101.350000	0.193934
101.400000	0.193106
101.450000	0.191650
101.500000	0.191458
101.550000	0.191662
101.600000	0.192052
101.650000	0.192204
101.700000	0.192115
101.750000	0.192184
101.800000	0.192428
101.850000	0.192738
101.900000	0.193078
101.950000	0.193289
102.000000	0.193329
102.050000	0.193648
102.100000	0.192809
102.150000	0.191420
102.200000	0.191357
102.250000	0.191634
102.300000	0.191986
102.350000	0.192251
102.400000	0.192172
102.450000	0.192302
102.500000	0.192508
102.550000	0.192843
102.600000	0.193142
102.650000	0.193302
102.700000	0.193330
102.750000	0.193784
102.800000	0.193120
102.850000	0.191642
102.900000	0.191525
102.950000	0.191918
103.000000	0.192322
103.050000	0.192545
103.100000	0.192458
103.150000	0.192709
103.200000	0.192956
103.250000	0.193437
103.300000	0.193664
103.350000	0.193936
103.400000	0.194198
103.450000	0.194482
103.500000	0.193569
103.550000	0.192291
103.600000	0.192323
103.650000	0.192576
103.700000	0.192976
103.750000	0.193298
103.800000	0.193070
103.850000	0.193217
103.900000	0.193510
103.950000	0.193863
104.000000	0.194117
104.050000	0.194362
104.100000	0.194692
104.150000	0.194324
104.200000	0.192901
104.250000	0.192391
104.300000	0.192614
104.350000	0.193038
104.400000	0.193392
104.450000	0.193344
104.500000	0.193270
104.550000	0.193467
104.600000	0.193833
104.650000	0.194142
104.700000	0.194423
104.750000	0.194675
104.800000	0.194066
104.850000	0.192611
104.900000	0.192359
104.950000	0.192525
105.000000	0.192985
105.050000	0.193282
105.100000	0.193227
105.150000	0.193216
105.200000	0.193390
105.250000	0.193656
105.300000	0.193956
105.350000	0.194329
105.400000	0.194387
105.450000	0.193128
105.500000	0.192101
105.550000	0.192200
105.600000	0.192527
105.650000	0.192957
105.700000	0.193037
105.750000	0.192950
105.800000	0.192993
105.850000	0.193405
105.900000	0.193637
105.950000	0.193818
106.000000	0.194189
106.050000	0.193737
106.100000	0.192172
106.150000	0.191658
106.200000	0.191992
106.250000	0.192335
106.300000	0.192657
106.350000	0.192620
106.400000	0.192658
106.450000	0.192884
106.500000	0.193153
106.550000	0.193436
106.600000	0.193751
106.650000	0.193957
106.700000	0.193001
106.750000	0.191622
106.800000	0.191536
106.850000	0.191664
106.900000	0.192019
106.950000	0.192392
107.000000	0.192324
107.050000	0.192296
107.100000	0.192636
107.150000	0.192903
107.200000	0.193137
107.250000	0.193414
107.300000	0.193689
107.350000	0.192550
107.400000	0.191232
107.450000	0.191274
107.500000	0.191632
107.550000	0.191884
107.600000	0.192086
107.650000	0.192187
107.700000	0.192289
107.750000	0.192541
107.800000	0.192844
107.850000	0.193192
107.900000	0.193348
107.950000	0.193670
108.000000	0.192757
108.050000	0.191360
108.100000	0.191288
108.150000	0.191519
108.200000	0.191999
108.250000	0.192015
108.300000	0.191959
108.350000	0.192176
108.400000	0.192424
108.450000	0.192660
108.500000	0.193000
108.550000	0.193226
108.600000	0.193431
108.650000	0.192661
108.700000	0.191371
108.750000	0.191215
108.800000	0.191537
108.850000	0.191950
108.900000	0.192129
108.950000	0.192109
109.000000	0.192136
109.050000	0.192468
109.100000	0.192778
109.150000	0.193032
109.200000	0.193311
109.250000	0.193450
109.300000	0.192669
109.350000	0.191290
109.400000	0.191146
109.450000	0.191235
109.500000	0.191701
109.550000	0.191973
109.600000	0.191806
109.650000	0.191823
109.700000	0.192138
109.750000	0.192432
109.800000	0.192710
109.850000	0.192866
109.900000	0.193144
109.950000	0.192560
110.000000	0.191142
110.050000	0.190779
110.100000	0.191092
110.150000	0.191454
110.200000	0.191749
110.250000	0.191655
110.300000	0.191693
110.350000	0.192101
110.400000	0.192504
110.450000	0.192838
110.500000	0.192967
110.550000	0.193401
110.600000	0.193359
110.650000	0.191933
110.700000	0.191125
110.750000	0.191301
110.800000	0.191712
110.850000	0.192146
110.900000	0.192246
110.950000	0.192155
111.000000	0.192398
111.050000	0.192761
111.100000	0.193097
111.150000	0.193368
111.200000	0.193565
111.250000	0.193895
111.300000	0.193368
111.350000	0.191910
111.400000	0.191698
111.450000	0.191922
111.500000	0.192357
111.550000	0.192732
111.600000	0.192676
111.650000	0.192706
111.700000	0.193050
111.750000	0.193393
111.800000	0.193687
111.850000	0.194010
111.900000	0.194216
111.950000	0.194438
112.000000	0.193493
112.050000	0.192323
112.100000	0.192440
112.150000	0.192832
112.200000	0.193330
112.250000	0.193555
112.300000	0.193435
112.350000	0.193635
112.400000	0.193956
112.450000	0.194315
112.500000	0.194705
112.550000	0.194912
112.600000	0.195223
112.650000	0.194817
112.700000	0.193479
112.750000	0.193126
112.800000	0.193496
112.850000	0.193948
112.900000	0.194395
112.950000	0.194351
113.000000	0.194391
113.050000	0.194692
113.100000	0.195025
113.150000	0.195429
113.200000	0.195736
113.250000	0.195997
113.300000	0.195625
113.350000	0.194187
113.400000	0.193857
113.450000	0.194189
113.500000	0.194478
113.550000	0.194909
113.600000	0.194968
113.650000	0.194953
113.700000	0.195197
113.750000	0.195541
113.800000	0.195781
113.850000	0.196039
113.900000	0.196239
113.950000	0.195397
114.000000	0.194048
114.050000	0.194058
114.100000	0.194366
114.150000	0.194780
114.200000	0.195079
114.250000	0.194990
114.300000	0.195084
114.350000	0.195300
114.400000	0.195514
114.450000	0.195879
114.500000	0.196195
114.550000	0.196040
114.600000	0.194441
114.650000	0.193700
114.700000	0.194069
114.750000	0.194676
114.800000	0.195276
114.850000	0.195138
114.900000	0.195111
114.950000	0.195383
115.000000	0.195634
115.050000	0.195872
115.100000	0.196084
115.150000	0.196340
115.200000	0.195377
115.250000	0.193886
115.300000	0.193977
115.350000	0.194496
115.400000	0.194811
115.450000	0.195099
115.500000	0.195032
115.550000	0.195093
115.600000	0.195406
115.650000	0.195712
115.700000	0.195910
115.750000	0.196259
115.800000	0.196043
115.850000	0.194550
115.900000	0.193797
115.950000	0.194135
116.000000	0.194541
116.050000	0.194817
116.100000	0.195046
116.150000	0.195065
116.200000	0.195312
116.250000	0.195568
116.300000	0.195921
116.350000	0.196199
116.400000	0.196292
116.450000	0.195542
116.500000	0.194271
116.550000	0.194208
116.600000	0.194609
116.650000	0.194957
116.700000	0.195252
116.750000	0.195078
116.800000	0.195246
116.850000	0.195550
116.900000	0.195769
116.950000	0.196152
117.000000	0.196363
117.050000	0.196059
117.100000	0.194704
117.150000	0.193957
117.200000	0.194182
117.250000	0.194477
117.300000	0.194884
117.350000	0.194813
117.400000	0.194838
117.450000	0.195044
117.500000	0.195282
117.550000	0.195606
117.600000	0.195798
117.650000	0.195893
117.700000	0.194934
117.750000	0.193569
117.800000	0.193477
117.850000	0.193722
117.900000	0.194204
117.950000	0.194419
118.000000	0.194274
118.050000	0.194314
118.100000	0.194638
118.150000	0.194838
118.200000	0.194971
118.250000	0.195351
118.300000	0.195220
118.350000	0.193751
118.400000	0.192957
118.450000	0.193187
118.500000	0.193540
118.550000	0.193883
118.600000	0.193828
118.650000	0.193705
118.700000	0.193930
118.750000	0.194324
118.800000	0.194611
118.850000	0.194871
118.900000	0.195119
118.950000	0.194978
119.000000	0.193506
119.050000	0.192858
119.100000	0.193158
119.150000	0.193584
119.200000	0.193927
119.250000	0.194096
119.300000	0.194051
119.350000	0.194289
119.400000	0.194637
119.450000	0.194987
119.500000	0.195250
119.550000	0.195469
119.600000	0.195772
119.650000	0.194552
119.700000	0.193529
119.750000	0.193973
119.800000	0.194140
119.850000	0.194356
119.900000	0.194622
119.950000	0.194554
120.000000	0.194624
120.050000	0.194818
120.100000	0.195174
120.150000	0.195363
120.200000	0.195538
120.250000	0.195878
120.300000	0.195783
120.350000	0.194252
120.400000	0.193596
120.450000	0.194014
120.500000	0.194322
120.550000	0.194741
120.600000	0.194888
120.650000	0.194858
120.700000	0.195061
120.750000	0.195402
120.800000	0.195702
120.850000	0.196026
120.900000	0.196191
120.950000	0.196254
121.000000	0.195323
121.050000	0.194299
121.100000	0.194344
121.150000	0.194677
121.200000	0.195122
121.250000	0.195334
121.300000	0.195293
121.350000	0.195350
121.400000	0.195606
121.450000	0.195977
121.500000	0.196470
121.550000	0.196824
121.600000	0.196728
121.650000	0.195511
121.700000	0.194307
121.750000	0.194424
121.800000	0.194566
121.850000	0.194874
121.900000	0.195105
121.950000	0.194911
122.000000	0.194953
122.050000	0.195223
122.100000	0.195562
122.150000	0.195781
122.200000	0.196153
122.250000	0.196118
122.300000	0.194727
122.350000	0.193815
122.400000	0.194077
122.450000	0.194323
122.500000	0.194712
122.550000	0.194910
122.600000	0.194838
122.650000	0.194942
122.700000	0.195345
122.750000	0.195651
122.800000	0.195825
122.850000	0.196096
122.900000	0.195994
122.950000	0.194358
123.000000	0.193708
123.050000	0.194129
123.100000	0.194467
123.150000	0.194827
123.200000	0.194955
123.250000	0.194900
123.300000	0.195055
123.350000	0.195388
123.400000	0.195673
123.450000	0.195858
123.500000	0.196237
123.550000	0.195815
123.600000	0.194197
123.650000	0.193861
123.700000	0.194377
123.750000	0.194738
123.800000	0.195115
123.850000	0.195175
123.900000	0.195196
123.950000	0.195240
124.000000	0.195458
124.050000	0.195925
124.100000	0.196162
124.150000	0.196505
124.200000	0.195914
124.250000	0.194493
124.300000	0.194293
124.350000	0.194446
124.400000	0.194975
124.450000	0.195341
124.500000	0.195091
124.550000	0.195283
124.600000	0.195786
124.650000	0.196102
124.700000	0.196349
124.750000	0.196563
124.800000	0.196921
124.850000	0.196516
124.900000	0.194994
124.950000	0.194561
125.000000	0.194986
125.050000	0.195367
125.100000	0.195574
125.150000	0.195488
125.200000	0.195541
125.250000	0.195824
125.300000	0.196096
125.350000	0.196372
125.400000	0.196515
125.450000	0.196714
125.500000	0.196329
125.550000	0.194822
125.600000	0.194286
125.650000	0.194543
125.700000	0.195096
125.750000	0.195326
125.800000	0.195154
125.850000	0.195142
125.900000	0.195470
125.950000	0.195704
126.000000	0.195977
126.050000	0.196231
126.100000	0.196518
126.150000	0.196146
126.200000	0.194602
126.250000	0.194012
126.300000	0.194340
126.350000	0.194730
126.400000	0.195014
126.450000	0.194940
126.500000	0.194951
126.550000	0.195230
126.600000	0.195611
126.650000	0.195917
126.700000	0.196107
126.750000	0.196398
126.800000	0.196355
126.850000	0.194844
126.900000	0.194079
126.950000	0.194356
127.000000	0.194603
127.050000	0.194978
127.100000	0.195243
127.150000	0.195091
127.200000	0.195207
127.250000	0.195651
127.300000	0.195999
127.350000	0.196279
127.400000	0.196513
127.450000	0.196822
127.500000	0.196006
127.550000	0.194587
127.600000	0.194484
127.650000	0.194905
127.700000	0.195299
127.750000	0.195489
127.800000	0.195523
127.850000	0.195540
127.900000	0.195962
127.950000	0.196232
128.000000	0.196462
128.050000	0.196747
128.100000	0.197156
128.150000	0.197119
128.200000	0.195799
128.250000	0.195015
128.300000	0.195169
128.350000	0.195531
128.400000	0.195929
128.450000	0.195977
128.500000	0.195855
128.550000	0.196214
128.600000	0.196531
128.650000	0.196879
128.700000	0.197221
128.750000	0.197508
128.800000	0.197563
128.850000	0.196397
128.900000	0.195420
128.950000	0.195412
129.000000	0.195708
129.050000	0.196090
129.100000	0.196105
129.150000	0.195975
129.200000	0.196206
129.250000	0.196496
129.300000	0.196803
129.350000	0.197054
129.400000	0.197286
129.450000	0.197359
129.500000	0.196039
129.550000	0.195138
129.600000	0.195355
129.650000	0.195597
129.700000	0.196053
129.750000	0.196038
129.800000	0.195833
129.850000	0.196079
129.900000	0.196299
129.950000	0.196547
130.000000	0.196832
130.050000	0.197057
130.100000	0.196943
130.150000	0.195493
130.200000	0.194587
130.250000	0.194860
130.300000	0.195201
130.350000	0.195538
130.400000	0.195568
130.450000	0.195458
130.500000	0.195645
130.550000	0.195965
130.600000	0.196225
130.650000	0.196441
130.700000	0.196600
130.750000	0.196785
130.800000	0.195451
130.850000	0.194219
130.900000	0.194504
130.950000	0.194946
131.000000	0.195257
131.050000	0.195362
131.100000	0.195288
131.150000	0.195457
131.200000	0.195780
131.250000	0.196043
131.300000	0.196356
131.350000	0.196514
131.400000	0.196766
131.450000	0.195907
131.500000	0.194511
131.550000	0.194322
131.600000	0.194718
131.650000	0.195158
131.700000	0.195438
131.750000	0.195325
131.800000	0.195405
131.850000	0.195774
131.900000	0.196140
131.950000	0.196537
132.000000	0.196754
132.050000	0.197023
132.100000	0.196711
132.150000	0.195338
132.200000	0.194643
132.250000	0.194851
132.300000	0.195336
132.350000	0.195577
132.400000	0.195628
132.450000	0.195733
132.500000	0.195949
132.550000	0.196316
132.600000	0.196614
132.650000	0.196811
132.700000	0.197030
132.750000	0.196838
132.800000	0.195200
132.850000	0.194479
132.900000	0.194698
132.950000	0.194949
133.000000	0.195254
133.050000	0.195252
133.100000	0.195153
133.150000	0.195332
133.200000	0.195708
133.250000	0.195893
133.300000	0.196114
133.350000	0.196426
133.400000	0.196030
133.450000	0.194467
133.500000	0.193868
133.550000	0.194098
133.600000	0.194429
133.650000	0.194764
133.700000	0.194651
133.750000	0.194587
133.800000	0.194790
133.850000	0.195154
133.900000	0.195429
133.950000	0.195602
134.000000	0.195990
134.050000	0.195803
134.100000	0.194271
134.150000	0.193460
134.200000	0.193658
134.250000	0.194111
134.300000	0.194630
134.350000	0.194543
134.400000	0.194336
134.450000	0.194556
134.500000	0.194891
134.550000	0.195271
134.600000	0.195521
134.650000	0.195568
134.700000	0.195899
134.750000	0.195180
134.800000	0.193556
134.850000	0.193378
134.900000	0.193661
134.950000	0.194000
135.000000	0.194497
135.050000	0.194521
135.100000	0.194632
135.150000	0.195028
135.200000	0.195364
135.250000	0.195900
135.300000	0.196130
135.350000	0.196192
135.400000	0.196296
135.450000	0.195075
135.500000	0.193727
135.550000	0.193926
135.600000	0.194432
135.650000	0.194959
135.700000	0.195075
135.750000	0.195018
135.800000	0.195310
135.850000	0.195679
135.900000	0.196081
135.950000	0.196419
136.000000	0.196647
136.050000	0.197000
136.100000	0.196635
136.150000	0.195120
136.200000	0.194723
136.250000	0.195203
136.300000	0.195724
136.350000	0.195983
136.400000	0.195912
136.450000	0.196051
136.500000	0.196258
136.550000	0.196558
136.600000	0.197138
136.650000	0.197383
136.700000	0.197595
136.750000	0.197439
136.800000	0.195978
136.850000	0.195278
136.900000	0.195572
136.950000	0.195929
137.000000	0.196333
137.050000	0.196192
137.100000	0.196153
137.150000	0.196270
137.200000	0.196597
137.250000	0.196885
137.300000	0.197144
137.350000	0.197429
137.400000	0.196697
137.450000	0.195090
137.500000	0.194803
137.550000	0.195056
137.600000	0.195426
137.650000	0.195643
137.700000	0.195423
137.750000	0.195390
137.800000	0.195706
137.850000	0.195966
137.900000	0.196112
137.950000	0.196442
138.000000	0.196404
138.050000	0.194990
138.100000	0.194046
138.150000	0.194332
138.200000	0.194730
138.250000	0.195142
138.300000	0.195296
138.350000	0.195157
138.400000	0.195291
138.450000	0.195663
138.500000	0.195927
138.550000	0.196156
138.600000	0.196451
138.650000	0.195397
138.700000	0.193833
138.750000	0.193710
138.800000	0.194063
138.850000	0.194569
138.900000	0.194652
138.950000	0.194542
139.000000	0.194648
139.050000	0.195000
139.100000	0.195274
139.150000	0.195494
139.200000	0.195873
139.250000	0.195738
139.300000	0.194080
139.350000	0.193176
139.400000	0.193485
139.450000	0.193874
139.500000	0.194288
139.550000	0.194381
139.600000	0.194303
139.650000	0.194482
139.700000	0.194809
139.750000	0.195128
139.800000	0.195235
139.850000	0.195593
139.900000	0.195336
139.950000	0.193620
140.000000	0.192987
140.050000	0.193409
140.100000	0.193811
140.150000	0.194233
140.200000	0.194243
140.250000	0.194361
140.300000	0.194588
140.350000	0.194922
140.400000	0.195384
140.450000	0.195611
140.500000	0.195901
140.550000	0.195395
140.600000	0.193781
140.650000	0.193290
140.700000	0.193643
140.750000	0.193980
140.800000	0.194316
140.850000	0.194231
140.900000	0.194143
140.950000	0.194315
141.000000	0.194760
141.050000	0.194922
141.100000	0.195174
141.150000	0.195454
141.200000	0.194708
141.250000	0.192991
141.300000	0.192711
141.350000	0.192913
141.400000	0.193179
141.450000	0.193395
141.500000	0.193352
141.550000	0.193152
141.600000	0.193318
141.650000	0.193789
141.700000	0.194436
141.750000	0.194751
141.800000	0.194825
141.850000	0.194219
141.900000	0.192655
141.950000	0.192306
142.000000	0.192512
142.050000	0.192819
142.100000	0.193237
142.150000	0.193366
142.200000	0.193519
142.250000	0.193716
142.300000	0.194217
142.350000	0.194926
142.400000	0.195024
142.450000	0.195048
142.500000	0.195142
142.550000	0.193609
142.600000	0.192574
142.650000	0.192728
142.700000	0.193132
142.750000	0.193693
142.800000	0.193631
142.850000	0.193480
142.900000	0.193746
142.950000	0.193860
143.000000	0.193874
143.050000	0.193260
143.100000	0.191808
143.150000	0.190992
143.200000	0.189801
143.250000	0.186554
143.300000	0.183684
143.350000	0.182521
143.400000	0.174705
143.450000	0.157027
143.500000	0.127510
143.550000	0.095596
143.600000	0.068386
143.650000	0.049548
143.700000	0.141392
143.750000	0.572638
143.800000	0.327712
143.850000	0.189620
143.900000	0.104844
143.950000	0.078684
144.000000	0.024601
144.050000	0.004451
144.100000	0.002674
144.150000	0.002122
144.200000	0.001438
144.250000	0.001102
144.300000	0.000925
144.350000	0.000881
144.400000	0.000847
144.450000	0.000799
144.500000	0.000742
144.550000	0.000773
144.600000	0.000751
144.650000	0.000696
144.700000	0.000657
144.750000	0.000642
144.800000	0.000621
144.850000	0.000618
144.900000	0.000629
144.950000	0.000623
145.000000	0.000602
145.050000	0.000601
145.100000	0.000623
145.150000	0.000623
145.200000	0.000633
145.250000	0.000634
145.300000	0.000632
145.350000	0.000633
145.400000	0.000632
145.450000	0.000633
145.500000	0.000649
145.550000	0.000647
145.600000	0.000646
145.650000	0.000652
145.700000	0.000658
145.750000	0.000664
145.800000	0.000656
145.850000	0.000655
145.900000	0.000659
145.950000	0.000664
146.000000	0.000672
146.050000	0.000670
146.100000	0.000657
146.150000	0.000656
146.200000	0.000651
146.250000	0.000660
146.300000	0.000678
146.350000	0.000684
